Acq. time (s)=	15
Accumulations=	2
Range (cm-¹)=	600...1800
Windows=	2
Autofocus=	Off
AutoExposure=	Off
Spike filter=	Multiple accum.
Delay time (s)=	1
Binning=	1
Readout mode=	Signal
DeNoise=	Standard
ICS correction=	Off
Dark correction=	Off
Inst. Process=	Off
Instrument=	XploRA
Detector=	Syncerity
Objective=	x20LWD
Grating=	1200 gr/mm
Filter=	25%
Laser (nm)=	785 
Slit (µm)=	100 
Hole (µm)=	300 
Laser pol=	None
Raman pol=	None
Output=	Camera
StageXY=	Marzhauser
StageZ=	
X (µm)=	83.8
Y (µm)=	-2568
Project=	
Sample=	
Site=	
Title=	CLsoP1
Remark=	
Date=	06.04.2022 10:18
Acquired=	06.04.2022 10:18:05
600.731	331.417
601.9	330.807
603.069	330.629
604.238	328.888
605.406	330.247
606.575	329.97
607.743	330.382
608.91	334.321
610.078	337.759
611.245	341.929
612.411	346.105
613.579	350.963
614.745	353.64
615.91	355.801
617.076	356.862
618.241	357.503
619.407	358.349
620.571	359.127
621.735	360.017
622.9	359.986
624.063	359.423
625.227	358.604
626.39	358.562
627.553	359.765
628.716	361.187
629.879	362.27
631.041	363.065
632.203	364.147
633.364	365.889
634.526	366.261
635.686	366.455
636.847	366.287
638.007	365.283
639.167	364.154
640.327	361.937
641.486	359.993
642.645	358.879
643.805	357.974
644.963	358.413
646.122	358.686
647.28	359.399
648.438	360.094
649.594	361.057
650.752	362.012
651.909	363.313
653.065	363.556
654.221	363.145
655.377	363.603
656.533	364.516
657.688	364.858
658.843	365.438
659.998	366.139
661.153	365.735
662.307	365.778
663.461	365.091
664.615	364.672
665.768	364.197
666.921	364.376
668.074	365.342
669.226	365.803
670.379	364.94
671.53	365.303
672.682	365.722
673.833	367.337
674.984	370.106
676.135	372.767
677.285	374.752
678.436	376.715
679.586	378.246
680.735	378.241
681.884	375.599
683.033	375.579
684.182	375.578
685.33	375.969
686.478	375.797
687.626	380.098
688.774	380.114
689.921	379.547
691.068	379.258
692.214	378.76
693.361	377.958
694.507	377.102
695.652	375.826
696.798	375.021
697.943	374.565
699.088	374.022
700.233	372.715
701.377	371.372
702.521	369.673
703.665	367.931
704.808	366.304
705.951	365.633
707.094	365.501
708.236	365.3
709.379	364.184
710.522	363.138
711.663	361.926
712.804	361.579
713.946	361.356
715.086	360.212
716.227	359.547
717.367	358.339
718.507	357.053
719.647	355.814
720.786	354.042
721.925	352.224
723.064	351.135
724.202	350.692
725.341	350.661
726.479	351.011
727.616	351.711
728.753	352.667
729.89	353.853
731.027	355.279
732.163	357.053
733.3	358.771
734.436	360.046
735.572	361.077
736.707	361.469
737.842	362.027
738.977	362.676
740.111	362.668
741.246	362.699
742.379	362.033
743.513	361.432
744.646	360.434
745.779	359.112
746.911	357.883
748.044	356.709
749.176	355.63
750.308	354.713
751.44	354.203
752.571	353.933
753.702	352.998
754.833	352.608
755.963	350.848
757.093	348.688
758.223	346.805
759.353	344.517
760.481	343.459
761.61	343.054
762.74	342.956
763.867	343.125
764.996	342.403
766.124	341.332
767.251	340.054
768.378	338.458
769.505	336.991
770.631	335.666
771.758	334.318
772.884	332.224
774.01	329.038
775.136	326.371
776.261	323.206
777.386	320.285
778.51	318.056
779.634	315.774
780.758	313.769
781.882	311.862
783.006	311.418
784.129	310.987
785.252	310.519
786.375	310.183
787.497	310.581
788.619	310.599
789.741	311.308
790.862	311.17
791.983	312.434
793.104	313.47
794.225	313.292
795.345	312.768
796.465	312.231
797.585	311.433
798.704	310.394
799.823	309.373
800.943	308.395
802.061	306.959
803.179	306.529
804.297	306.121
805.415	306.304
806.532	305.583
807.649	305.521
808.766	305.421
809.883	305.682
810.999	305.28
812.115	305.174
813.231	304.567
814.346	304.695
815.461	304.629
816.577	303.756
817.691	303.27
818.805	302.882
819.919	302.854
821.033	302.841
822.146	303.457
823.259	304.475
824.372	304.801
825.485	305.979
826.597	306.505
827.709	307.175
828.82	306.93
829.932	306.033
831.043	305.68
832.154	305.494
833.265	304.522
834.375	303.251
835.484	300.684
836.594	298.429
837.704	295.576
838.813	293.738
839.922	292.723
841.03	292.473
842.138	292.517
843.246	292.566
844.354	292.399
845.461	292.349
846.568	291.031
847.675	291.246
848.782	291.303
849.888	292.213
850.994	292.704
852.1	293.175
853.205	294.23
854.31	295.06
855.415	295.311
856.52	295.851
857.624	295.464
858.727	294.304
859.831	292.627
860.935	291.113
862.038	289.566
863.141	287.481
864.243	285.612
865.345	283.859
866.448	282.839
867.549	282.961
868.651	282.532
869.751	282.032
870.852	281.668
871.953	281.298
873.053	280.477
874.153	280.716
875.253	280.716
876.352	280.111
877.451	279.572
878.55	279.12
879.648	278.374
880.747	277.268
881.845	275.905
882.943	274.926
884.039	274.045
885.137	273.599
886.233	274.284
887.33	274.859
888.426	275.586
889.522	276.58
890.618	276.786
891.713	276.272
892.808	275.611
893.903	274.656
894.998	273.784
896.092	272.902
897.186	272.165
898.28	270.632
899.374	269.83
900.467	268.529
901.559	267.409
902.652	266.226
903.744	265.257
904.836	265.873
905.927	267.345
907.019	269.472
908.111	271.946
909.201	274.026
910.291	276.726
911.382	279.473
912.472	281.368
913.562	281.467
914.651	281.085
915.741	280.695
916.829	280.2
917.918	277.599
919.006	273.823
920.094	269.76
921.181	264.735
922.269	261.567
923.356	258.324
924.443	255.604
925.53	253.352
926.616	251.626
927.702	249.308
928.788	247.793
929.873	246.708
930.958	245.753
932.044	245.878
933.128	246.301
934.212	246.63
935.296	247.219
936.38	248.053
937.463	247.861
938.547	247.957
939.63	247.614
940.712	247.863
941.795	247.493
942.876	246.678
943.958	245.497
945.039	243.703
946.121	241.451
947.202	239.146
948.282	236.591
949.363	235.276
950.443	234.782
951.522	234.874
952.602	235.701
953.681	237.347
954.76	239.047
955.839	239.528
956.917	239.492
957.995	237.972
959.073	236.976
960.151	235.856
961.228	234.918
962.305	234.587
963.381	233.738
964.458	232.823
965.534	232.068
966.61	231.266
967.685	230.429
968.76	227.623
969.836	227.466
970.91	227.741
971.984	228.451
973.059	229.851
974.133	231.736
975.206	233.481
976.279	235.039
977.352	236.183
978.425	237.442
979.497	238.779
980.57	239.981
981.642	240.758
982.714	241.231
983.785	241.33
984.856	240.67
985.927	240.241
986.997	239.993
988.067	239.957
989.137	240.097
990.206	240.342
991.276	240.655
992.345	240.556
993.413	241.109
994.482	242.366
995.55	242.594
996.619	242.198
997.686	241.923
998.754	241.005
999.821	239.779
1000.89	238.436
1001.95	236.91
1003.02	234.879
1004.09	232.755
1005.15	230.706
1006.22	229.091
1007.28	227.787
1008.35	226.742
1009.41	226.033
1010.48	225.672
1011.54	225.18
1012.6	224.985
1013.67	223.731
1014.73	222.861
1015.79	221.863
1016.86	220.685
1017.92	219.965
1018.98	218.975
1020.04	217.966
1021.1	216.69
1022.16	214.441
1023.23	211.824
1024.29	209.624
1025.35	208.761
1026.41	207.809
1027.47	207.544
1028.53	207.586
1029.58	207.234
1030.64	206.911
1031.7	206.878
1032.76	206.529
1033.82	206.448
1034.88	207.008
1035.93	207.758
1036.99	208.394
1038.05	208.933
1039.11	209.697
1040.16	210.381
1041.22	210.719
1042.27	211.211
1043.33	211.099
1044.38	210.488
1045.44	209.404
1046.49	208.277
1047.55	206.86
1048.6	205.328
1049.66	204.528
1050.71	203.474
1051.76	201.91
1052.82	201.016
1053.87	200.656
1054.92	200.482
1055.97	200.258
1057.03	200.036
1058.08	199.888
1059.13	199.887
1060.18	199.931
1061.23	200.261
1062.28	200.496
1063.33	200.919
1064.38	201.224
1065.43	202.217
1066.48	203.01
1067.53	203.996
1068.58	204.45
1069.63	205.846
1070.68	211.335
1071.72	209.073
1072.77	205.737
1073.82	202.603
1074.87	198.816
1075.91	196.586
1076.96	195.982
1078.01	197.579
1079.05	198.32
1080.1	198.655
1081.14	198.455
1082.19	196.254
1083.23	193.341
1084.28	193.633
1085.32	192.479
1086.37	191.536
1087.41	190.594
1088.46	189.27
1089.5	188.031
1090.54	187.126
1091.58	186.521
1092.63	186.202
1093.67	186.501
1094.71	186.87
1095.75	187.538
1096.79	187.816
1097.83	188.281
1098.88	189.167
1099.92	190.402
1100.96	191.236
1102	192.163
1103.04	193.046
1104.08	193.97
1105.11	194.322
1106.15	194.692
1107.19	194.672
1108.23	194.042
1109.27	193.433
1110.31	193.288
1111.34	192.94
1112.38	193.068
1113.42	193.263
1114.45	192.947
1115.49	192.133
1116.53	191.312
1117.56	190.412
1118.6	189.055
1119.63	187.997
1120.67	186.542
1121.7	185.576
1122.74	184.506
1123.77	183.796
1124.81	183.393
1125.84	182.694
1126.87	181.523
1127.91	180.421
1128.94	179.787
1129.97	179.842
1131	180.497
1132.04	181.429
1133.07	182.786
1134.1	183.915
1135.13	185.56
1136.16	187.088
1137.19	189.284
1138.22	191.459
1139.25	193.106
1140.28	195.401
1141.31	196.795
1142.34	197.768
1143.37	199.028
1144.4	200.297
1145.42	200.92
1146.45	201.006
1147.48	200.675
1148.51	201.37
1149.53	201.364
1150.56	202.78
1151.59	204.865
1152.62	206.882
1153.64	209.644
1154.67	210.886
1155.69	211.998
1156.72	211.177
1157.74	209.652
1158.77	207.34
1159.79	199.402
1160.82	194.582
1161.84	190.639
1162.86	188.023
1163.89	185.773
1164.91	182.979
1165.93	180.422
1166.96	178.369
1167.98	176.791
1169	176.791
1170.02	176.106
1171.04	176.105
1172.06	178.142
1173.09	178.695
1174.11	179.62
1175.13	180.871
1176.15	181.87
1177.17	182.689
1178.18	183.497
1179.2	184.184
1180.22	185.358
1181.24	186.029
1182.26	186.844
1183.28	187.404
1184.3	187.433
1185.31	186.879
1186.33	186.431
1187.35	185.552
1188.37	184.745
1189.38	183.17
1190.4	181.371
1191.41	179.093
1192.43	176.321
1193.44	173.9
1194.46	172.108
1195.48	170.925
1196.49	169.78
1197.5	168.926
1198.52	169.292
1199.53	169.732
1200.54	170.893
1201.56	171.787
1202.57	172.885
1203.58	173.365
1204.6	173.614
1205.61	173.798
1206.62	173.3
1207.63	172.767
1208.64	171.8
1209.65	170.395
1210.66	168.433
1211.67	166.708
1212.68	165.527
1213.69	164.896
1214.7	164.151
1215.71	164.358
1216.72	164.648
1217.73	165.265
1218.74	166.261
1219.75	167.13
1220.76	168.359
1221.76	169.652
1222.77	170.676
1223.78	171.224
1224.79	171.83
1225.79	171.843
1226.8	171.92
1227.8	171.322
1228.81	170.255
1229.82	168.778
1230.82	167.457
1231.83	165.696
1232.83	164.125
1233.84	162.827
1234.84	161.668
1235.84	160.48
1236.85	159.196
1237.85	158
1238.85	157.169
1239.86	156.194
1240.86	155.917
1241.86	156.084
1242.86	155.917
1243.86	155.692
1244.87	155.828
1245.87	155.981
1246.87	155.549
1247.87	155.257
1248.87	154.584
1249.87	153.729
1250.87	152.702
1251.87	151.089
1252.87	149.986
1253.87	148.591
1254.86	147.964
1255.86	147.583
1256.86	147.209
1257.86	146.91
1258.86	146.98
1259.85	146.886
1260.85	146.882
1261.85	146.592
1262.84	146.813
1263.84	147.407
1264.84	147.447
1265.83	147.393
1266.83	146.868
1267.82	146.682
1268.82	146.087
1269.81	145.096
1270.81	143.585
1271.8	142.713
1272.8	141.905
1273.79	141.666
1274.78	142.417
1275.77	142.758
1276.77	143.129
1277.76	143.634
1278.75	143.917
1279.74	144.207
1280.74	144.525
1281.73	145.402
1282.72	146.207
1283.71	146.903
1284.7	147.123
1285.69	147.439
1286.68	147.061
1287.67	146.629
1288.66	145.712
1289.65	145.341
1290.64	145.556
1291.63	146.029
1292.61	146.452
1293.6	146.653
1294.59	146.229
1295.58	145.801
1296.56	145.224
1297.55	144.11
1298.54	143.796
1299.52	143.214
1300.51	142.9
1301.5	142.816
1302.48	142.301
1303.47	142.187
1304.45	141.62
1305.44	141.335
1306.42	141.486
1307.41	141.035
1308.39	140.626
1309.37	140.344
1310.36	139.638
1311.34	138.864
1312.32	137.106
1313.31	135.586
1314.29	134.272
1315.27	133.905
1316.25	134.141
1317.23	134.619
1318.22	136.219
1319.2	137.753
1320.18	139.706
1321.16	141.555
1322.14	143.48
1323.12	144.246
1324.1	145.475
1325.08	145.823
1326.06	146.186
1327.04	145.945
1328.01	145.046
1328.99	143.611
1329.97	141.142
1330.95	139.348
1331.93	137.411
1332.9	135.46
1333.88	133.988
1334.86	132.7
1335.83	131.728
1336.81	131.011
1337.79	131.07
1338.76	131.379
1339.74	131.885
1340.71	132.113
1341.69	132.4
1342.66	132.526
1343.64	132.512
1344.61	132.164
1345.58	131.573
1346.56	131.096
1347.53	129.859
1348.5	128.885
1349.48	127.622
1350.45	126.323
1351.42	124.901
1352.39	124.082
1353.36	123.532
1354.34	123.121
1355.31	123.346
1356.28	123.052
1357.25	123.458
1358.22	123.319
1359.19	123.36
1360.16	123.305
1361.13	123.247
1362.1	122.777
1363.07	122.062
1364.03	121.54
1365	121.009
1365.97	120.822
1366.94	120.777
1367.91	121.138
1368.87	121.019
1369.84	121.198
1370.81	121.011
1371.77	120.86
1372.74	120.542
1373.71	120.449
1374.67	120.327
1375.64	120.235
1376.6	120.612
1377.57	120.62
1378.53	120.692
1379.5	120.469
1380.46	119.95
1381.42	119.102
1382.39	118.141
1383.35	117.087
1384.31	116.463
1385.28	115.852
1386.24	115.121
1387.2	114.695
1388.16	113.911
1389.13	113.357
1390.09	112.909
1391.05	112.987
1392.01	113.184
1392.97	113.732
1393.93	113.999
1394.89	114.338
1395.85	115.366
1396.81	116.381
1397.77	117.042
1398.73	117.271
1399.69	117.475
1400.64	117.11
1401.6	116.688
1402.56	116.112
1403.52	115.435
1404.48	114.764
1405.43	114.117
1406.39	113.861
1407.35	114.716
1408.3	114.326
1409.26	114.088
1410.22	113.389
1411.17	112.941
1412.13	112.702
1413.08	112.596
1414.04	112.588
1414.99	113.37
1415.94	113.53
1416.9	113.65
1417.85	113.825
1418.81	114.079
1419.76	113.875
1420.71	113.667
1421.66	112.222
1422.62	112.302
1423.57	112.491
1424.52	112.957
1425.47	113.461
1426.42	113.734
1427.37	114.451
1428.33	115.559
1429.28	116.024
1430.23	116.652
1431.18	117.215
1432.13	118.081
1433.07	118.459
1434.02	118.866
1434.97	118.498
1435.92	118.175
1436.87	117.672
1437.82	116.564
1438.77	115.342
1439.71	114.165
1440.66	113.304
1441.61	112.861
1442.55	112.334
1443.5	112.173
1444.45	111.324
1445.39	110.667
1446.34	110.53
1447.28	110.179
1448.23	109.903
1449.18	110.178
1450.12	110.009
1451.06	109.928
1452.01	109.994
1452.95	109.446
1453.9	108.667
1454.84	107.881
1455.78	107.641
1456.72	107.192
1457.67	107.187
1458.61	106.997
1459.55	107.4
1460.49	107.659
1461.43	108.201
1462.38	108.663
1463.32	109.155
1464.26	109.68
1465.2	110.475
1466.14	110.41
1467.08	110.262
1468.02	109.442
1468.96	107.968
1469.9	106.44
1470.83	105.337
1471.77	103.804
1472.71	102.525
1473.65	101.68
1474.59	100.741
1475.53	99.9459
1476.46	99.3775
1477.4	99.1066
1478.34	99.4079
1479.27	99.8193
1480.21	100.624
1481.14	101.534
1482.08	102.656
1483.02	103.709
1483.95	104.038
1484.89	103.736
1485.82	103.478
1486.75	103.521
1487.69	103.457
1488.62	103.705
1489.56	104.015
1490.49	104.376
1491.42	104.183
1492.35	104.232
1493.29	103.894
1494.22	103.678
1495.15	103.592
1496.08	103.712
1497.01	103.797
1497.95	103.967
1498.88	104.499
1499.81	104.195
1500.74	105.051
1501.67	103.574
1502.6	102.327
1503.53	101.078
1504.46	100.192
1505.39	99.5785
1506.31	99.0534
1507.24	99.1479
1508.17	99.8091
1509.1	100.943
1510.03	102.389
1510.95	104.973
1511.88	107.23
1512.81	109.652
1513.74	111.991
1514.66	114.471
1515.59	116.993
1516.51	119.669
1517.44	122.927
1518.37	125.792
1519.29	128.821
1520.22	131.522
1521.14	134.022
1522.06	135.782
1522.99	137.228
1523.91	137.906
1524.84	138.336
1525.76	138.624
1526.68	138.882
1527.61	137.832
1528.53	136.516
1529.45	135.17
1530.37	133.199
1531.29	130.724
1532.21	128.162
1533.14	125.406
1534.06	122.797
1534.98	120.352
1535.9	118.288
1536.82	116.478
1537.74	114.86
1538.66	112.429
1539.58	109.993
1540.5	107.634
1541.42	105.689
1542.33	104.33
1543.25	103.536
1544.17	102.858
1545.09	102.343
1546.01	101.666
1546.92	101.128
1547.84	100.411
1548.76	99.6687
1549.67	99.1231
1550.59	98.8579
1551.51	98.6211
1552.42	98.7145
1553.34	98.9959
1554.25	98.3914
1555.17	97.993
1556.08	97.3067
1557	96.388
1557.91	95.4981
1558.82	94.2934
1559.74	93.1191
1560.65	92.1658
1561.56	91.243
1562.48	90.8045
1563.39	90.1347
1564.3	89.3753
1565.21	88.5093
1566.13	87.8034
1567.04	87.2848
1567.95	86.7227
1568.86	86.2598
1569.77	85.7775
1570.68	85.4176
1571.59	85.0657
1572.5	84.6932
1573.41	84.582
1574.32	84.363
1575.23	84.3205
1576.14	83.8614
1577.05	83.205
1577.95	82.9921
1578.86	83.0479
1579.77	83.1044
1580.68	83.3724
1581.59	84.0041
1582.49	84.7964
1583.4	85.0706
1584.31	85.3993
1585.21	85.6667
1586.12	85.7713
1587.02	85.8054
1587.93	85.7301
1588.84	85.6255
1589.74	85.7617
1590.65	86.0563
1591.55	86.071
1592.45	85.8991
1593.36	85.8614
1594.26	84.8697
1595.17	87.8246
1596.07	90.2256
1596.97	90.6184
1597.87	91.0687
1598.78	91.5094
1599.68	92.007
1600.58	92.3887
1601.48	92.7827
1602.38	92.8574
1603.29	92.842
1604.19	92.6476
1605.09	92.4091
1605.99	92.0494
1606.89	91.2397
1607.79	90.6811
1608.69	90.2547
1609.59	89.7199
1610.49	88.8715
1611.38	88.0424
1612.28	87.4777
1613.18	87.0299
1614.08	86.7141
1614.98	86.6819
1615.87	86.9529
1616.77	87.2168
1617.67	87.4003
1618.57	87.41
1619.46	87.3921
1620.36	87.241
1621.25	86.9887
1622.15	86.539
1623.05	85.9353
1623.94	85.3999
1624.84	84.8343
1625.73	84.2936
1626.62	83.7102
1627.52	83.184
1628.41	82.7481
1629.31	82.2916
1630.2	81.9455
1631.09	81.5219
1631.99	81.0792
1632.87	80.669
1633.8	80.2377
1634.73	79.7934
1635.65	79.2978
1636.58	78.7867
1637.51	78.0919
1638.44	77.202
1639.37	76.5843
1640.29	76.1921
1641.22	76.025
1642.15	76.0823
1643.08	76.2805
1644	76.683
1644.93	77.5404
1645.85	78.5054
1646.78	78.5646
1647.71	78.2306
1648.63	77.9657
1649.56	78.0077
1650.48	77.7347
1651.41	77.466
1652.33	76.981
1653.26	76.439
1654.18	75.6689
1655.1	74.8973
1656.03	74.4161
1656.95	74.1838
1657.87	74.169
1658.8	74.456
1659.72	75.1199
1660.64	75.4638
1661.56	75.7545
1662.49	76.1271
1663.41	76.4768
1664.33	76.5499
1665.25	76.5818
1666.17	76.771
1667.09	77.0183
1668.02	77.1941
1668.94	76.6808
1669.86	76.9482
1670.78	77.0703
1671.7	77.025
1672.62	76.967
1673.53	77.2333
1674.45	77.3227
1675.37	77.0579
1676.29	76.2313
1677.21	76.0153
1678.13	75.6401
1679.05	75.5122
1679.96	75.3071
1680.88	74.7429
1681.8	74.3519
1682.72	74.0585
1683.63	73.8994
1684.55	73.8006
1685.47	73.7386
1686.38	73.6572
1687.3	73.4353
1688.21	72.7549
1689.13	71.8686
1690.05	71.339
1690.96	70.8489
1691.87	70.4327
1692.79	69.9936
1693.7	69.5529
1694.62	68.9844
1695.53	68.4355
1696.45	68.0356
1697.36	67.6248
1698.27	67.9066
1699.19	68.2945
1700.1	68.7713
1701.01	69.2504
1701.92	69.6966
1702.84	69.3912
1703.75	69.2205
1704.66	68.945
1705.57	68.0417
1706.48	67.6428
1707.39	67.3151
1708.3	66.9207
1709.21	66.0607
1710.12	65.4117
1711.03	65.3186
1711.95	65.3347
1712.85	65.7879
1713.76	65.9394
1714.67	65.7286
1715.58	65.7075
1716.49	65.6966
1717.4	65.7016
1718.31	65.7625
1719.22	65.766
1720.12	65.5791
1721.03	65.3302
1721.94	64.9943
1722.85	64.7525
1723.75	64.3475
1724.66	64.7152
1725.57	64.9388
1726.47	65.3563
1727.38	65.4977
1728.28	64.948
1729.19	64.4662
1730.1	64.0733
1731	64.1007
1731.91	64.258
1732.81	64.4259
1733.71	64.6933
1734.62	64.9402
1735.52	65.266
1736.43	65.5676
1737.33	65.667
1738.23	64.8167
1739.14	64.186
1740.04	63.7759
1740.94	63.3835
1741.85	63.1015
1742.75	63.0286
1743.65	63.0123
1744.55	63.4498
1745.45	63.6881
1746.35	63.5073
1747.26	63.7009
1748.16	63.6697
1749.06	63.6521
1749.96	63.5997
1750.86	63.4905
1751.76	63.352
1752.66	63.0767
1753.56	62.4811
1754.46	61.8531
1755.36	61.3282
1756.25	61.2294
1757.15	61.2625
1758.05	61.5992
1758.95	61.6985
1759.85	61.6789
1760.75	61.7014
1761.64	62.0144
1762.54	61.8997
1763.44	61.6824
1764.33	61.6918
1765.23	61.2873
1766.13	61.0135
1767.02	60.5072
1767.92	60.3042
1768.82	60.0132
1769.71	59.6499
1770.61	59.3574
1771.5	59.5399
1772.4	59.7947
1773.29	60.0675
1774.19	60.3917
1775.08	60.6948
1775.97	60.9858
1776.87	61.2812
1777.76	61.5182
1778.65	61.7774
1779.55	61.843
1780.44	61.8329
1781.33	61.5866
1782.23	61.2443
1783.12	60.8096
1784.01	60.5716
1784.9	60.6782
1785.79	60.8256
1786.68	60.3755
1787.58	59.8413
1788.47	59.3533
1789.36	58.8979
1790.25	58.5512
1791.14	58.6693
1792.03	59.1599
1792.92	59.0343
1793.81	58.6933
1794.7	58.6014
1795.58	58.4669
1796.47	58.0903
1797.36	55.3054
1798.25	52.9265
1799.14	50.6278
