Acq. time (s)=	15
Accumulations=	2
Range (cm-¹)=	600...1800
Windows=	2
Autofocus=	Off
AutoExposure=	Off
Spike filter=	Multiple accum.
Delay time (s)=	1
Binning=	1
Readout mode=	Signal
DeNoise=	Standard
ICS correction=	Off
Dark correction=	Off
Inst. Process=	Off
Instrument=	XploRA
Detector=	Syncerity
Objective=	x20LWD
Grating=	1200 gr/mm
Filter=	25%
Laser (nm)=	785 
Slit (µm)=	100 
Hole (µm)=	300 
Laser pol=	None
Raman pol=	None
Output=	Camera
StageXY=	Marzhauser
StageZ=	
X (µm)=	3029.5
Y (µm)=	9635.3
Project=	
Sample=	
Site=	
Title=	CLsoP1
Remark=	
Date=	06.04.2022 10:32
Acquired=	06.04.2022 10:32:03
600.731	735.18
601.9	742.34
603.069	748.448
604.238	752.27
605.406	758.037
606.575	764.683
607.743	770.186
608.91	777.408
610.078	781.517
611.245	786.087
612.411	789.616
613.579	793.546
614.745	794.708
615.91	795.254
617.076	795.949
618.241	796.702
619.407	797.304
620.571	797.846
621.735	798.104
622.9	798.685
624.063	799.031
625.227	799.484
626.39	800.942
627.553	801.736
628.716	802.727
629.879	804.223
631.041	805.65
632.203	806.956
633.364	807.163
634.526	807.609
635.686	808.325
636.847	809.22
638.007	809.517
639.167	810.15
640.327	810.554
641.486	810.303
642.645	809.773
643.805	809.796
644.963	809.759
646.122	810.525
647.28	810.461
648.438	810.876
649.594	811.009
650.752	811.209
651.909	811.444
653.065	810.954
654.221	810.914
655.377	813.021
656.533	813.53
657.688	814.035
658.843	814.842
659.998	815.592
661.153	815.678
662.307	816.344
663.461	817.585
664.615	819.886
665.768	822.394
666.921	824.833
668.074	827.622
669.226	829.933
670.379	832.511
671.53	835.133
672.682	837.287
673.833	838.793
674.984	838.882
676.135	839.17
677.285	839.529
678.436	839.001
679.586	837.918
680.735	837.604
681.884	836.98
683.033	835.832
684.182	834.523
685.33	833.725
686.478	833.727
687.626	834.434
688.774	835.088
689.921	836.136
691.068	838.136
692.214	839.777
693.361	841.486
694.507	842.677
695.652	841.848
696.798	840.429
697.943	840.485
699.088	838.101
700.233	835.446
701.377	832.767
702.521	829.539
703.665	827.894
704.808	824.921
705.951	821.372
707.094	817.084
708.236	813.886
709.379	810.751
710.522	808.608
711.663	807.044
712.804	805.3
713.946	803.893
715.086	803.745
716.227	803.74
717.367	803.775
718.507	802.104
719.647	799.018
720.786	796.242
721.925	793.584
723.064	792.339
724.202	791.656
725.341	790.043
726.479	788.546
727.616	787.502
728.753	786.233
729.89	785.749
731.027	787.64
732.163	790.286
733.3	793.839
734.436	798.3
735.572	802.956
736.707	806.714
737.842	810.665
738.977	813.257
740.111	815.319
741.246	817.279
742.379	817.485
743.513	816.744
744.646	815.284
745.779	813.855
746.911	811.32
748.044	808.584
749.176	805.251
750.308	802.751
751.44	798.936
752.571	795.627
753.702	793.4
754.833	790.634
755.963	786.47
757.093	782.691
758.223	778.82
759.353	773.994
760.481	770.103
761.61	767.459
762.74	765.557
763.867	762.056
764.996	758.788
766.124	755.58
767.251	753.695
768.378	751.958
769.505	750.363
770.631	747.403
771.758	743.162
772.884	740.527
774.01	737.156
775.136	734.665
776.261	732.331
777.386	729.566
778.51	726.473
779.634	724.904
780.758	722.814
781.882	720.254
783.006	718.502
784.129	717.438
785.252	714.759
786.375	712.334
787.497	710.643
788.619	708.743
789.741	705.846
790.862	701.731
791.983	698.034
793.104	694.844
794.225	692.676
795.345	691.091
796.465	688.664
797.585	685.846
798.704	683.112
799.823	681.236
800.943	679.372
802.061	677.872
803.179	676.698
804.297	675.686
805.415	674.138
806.532	672.711
807.649	670.112
808.766	668.682
809.883	668.284
810.999	667.529
812.115	667.636
813.231	667.442
814.346	668.037
815.461	668.75
816.577	669.226
817.691	670.855
818.805	670.199
819.919	669.981
821.033	668.925
822.146	666.609
823.259	665.193
824.372	663.875
825.485	662.94
826.597	660.994
827.709	658.823
828.82	656.909
829.932	656.011
831.043	656.472
832.154	657.614
833.265	660.033
834.375	661.887
835.484	662.773
836.594	663.981
837.704	664.61
838.813	664.739
839.922	664.355
841.03	663.475
842.138	663.192
843.246	662.142
844.354	660.967
845.461	659.504
846.568	657.697
847.675	655.049
848.782	651.942
849.888	648.276
850.994	645.945
852.1	643.562
853.205	640.841
854.31	638.231
855.415	636.789
856.52	633.734
857.624	630.924
858.727	628.524
859.831	626.107
860.935	625.285
862.038	623.703
863.141	622.728
864.243	622.692
865.345	622.838
866.448	623.165
867.549	622.38
868.651	620.599
869.751	618.672
870.852	618.085
871.953	616.391
873.053	614.257
874.153	610.998
875.253	608.282
876.352	606.049
877.451	603.135
878.55	599.699
879.648	596.837
880.747	594.895
881.845	593.451
882.943	591.586
884.039	589.553
885.137	589.659
886.233	590.549
887.33	591.713
888.426	592.303
889.522	593.148
890.618	593.263
891.713	592.986
892.808	592.205
893.903	591.532
894.998	590.783
896.092	590.621
897.186	590.434
898.28	590.704
899.374	591.756
900.467	593.305
901.559	594.271
902.652	596.056
903.744	597.541
904.836	599.134
905.927	599.533
907.019	597.148
908.111	597.024
909.201	599.95
910.291	601.348
911.382	600.158
912.472	598.618
913.562	595.963
914.651	592.295
915.741	588.955
916.829	585.343
917.918	581.739
919.006	577.917
920.094	573.573
921.181	570.55
922.269	568.08
923.356	565.892
924.443	563.916
925.53	561.933
926.616	559.533
927.702	556.737
928.788	553.724
929.873	550.429
930.958	548.045
932.044	547.628
933.128	546.533
934.212	544.682
935.296	543.274
936.38	540.829
937.463	538.364
938.547	536.076
939.63	534.905
940.712	534.522
941.795	533.46
942.876	533.008
943.958	533.531
945.039	533.824
946.121	533.227
947.202	531.385
948.282	530.386
949.363	529.186
950.443	527.203
951.522	525.362
952.602	524.991
953.681	524.73
954.76	523.903
955.839	522.676
956.917	522.126
957.995	520.847
959.073	520.24
960.151	519.059
961.228	518.19
962.305	516.585
963.381	515.519
964.458	514.876
965.534	513.74
966.61	511.945
967.685	509.031
968.76	507.208
969.836	506.905
970.91	507.148
971.984	507.409
973.059	508.436
974.133	509.883
975.206	510.222
976.279	511.663
977.352	513.761
978.425	516.538
979.497	518.497
980.57	520.622
981.642	521.622
982.714	523.414
983.785	524.675
984.856	526.322
985.927	527.346
986.997	526.737
988.067	525.888
989.137	524.542
990.206	521.946
991.276	520.567
992.345	519.067
993.413	517.302
994.482	514.575
995.55	513.004
996.619	513.367
997.686	513.273
998.754	512.524
999.821	510.944
1000.89	513.187
1001.95	514.783
1003.02	514.695
1004.09	513.694
1005.15	510.659
1006.22	506.121
1007.28	500.355
1008.35	492.424
1009.41	491.905
1010.48	487.521
1011.54	482.641
1012.6	477.389
1013.67	471.839
1014.73	466.435
1015.79	461.184
1016.86	457.702
1017.92	453.929
1018.98	450.251
1020.04	449.658
1021.1	448.383
1022.16	446.959
1023.23	446.079
1024.29	445.117
1025.35	444.375
1026.41	443.54
1027.47	443.032
1028.53	443.548
1029.58	444.24
1030.64	445.401
1031.7	446.183
1032.76	446.316
1033.82	446.315
1034.88	446.632
1035.93	446.602
1036.99	446.693
1038.05	446.163
1039.11	445.737
1040.16	445.949
1041.22	446.748
1042.27	446.535
1043.33	446.068
1044.38	445.514
1045.44	444.798
1046.49	443.08
1047.55	440.976
1048.6	438.926
1049.66	437.157
1050.71	435.563
1051.76	434.646
1052.82	433.171
1053.87	432.484
1054.92	431.606
1055.97	431.881
1057.03	432.811
1058.08	433.72
1059.13	433.912
1060.18	434.185
1061.23	433.239
1062.28	432.149
1063.33	431.851
1064.38	432.193
1065.43	432.705
1066.48	431.245
1067.53	430.079
1068.58	429.359
1069.63	429.381
1070.68	429.261
1071.72	429.96
1072.77	429.774
1073.82	430.209
1074.87	430.317
1075.91	429.776
1076.96	430.108
1078.01	429.261
1079.05	427.259
1080.1	424.214
1081.14	421.227
1082.19	418.694
1083.23	416.937
1084.28	415.163
1085.32	413.87
1086.37	412.248
1087.41	410.045
1088.46	408.765
1089.5	407.968
1090.54	407.209
1091.58	406.364
1092.63	405.632
1093.67	405.609
1094.71	406.106
1095.75	405.673
1096.79	404.847
1097.83	404.415
1098.88	403.636
1099.92	402.586
1100.96	402.055
1102	401.547
1103.04	401.444
1104.08	402.041
1105.11	402.554
1106.15	403.647
1107.19	404.765
1108.23	405.164
1109.27	405.957
1110.31	406.905
1111.34	406.6
1112.38	406.134
1113.42	404.906
1114.45	403.213
1115.49	401.937
1116.53	400.14
1117.56	398.081
1118.6	395.42
1119.63	392.684
1120.67	389.658
1121.7	386.961
1122.74	384.337
1123.77	381.719
1124.81	379.741
1125.84	378.71
1126.87	377.442
1127.91	376.754
1128.94	375.9
1129.97	375.723
1131	375.216
1132.04	376.123
1133.07	379.324
1134.1	383.852
1135.13	389.129
1136.16	395.149
1137.19	403.877
1138.22	414.11
1139.25	424.452
1140.28	434.932
1141.31	436.378
1142.34	430.936
1143.37	423.456
1144.4	409.541
1145.42	417.125
1146.45	413.229
1147.48	418.819
1148.51	429.492
1149.53	436.29
1150.56	447.741
1151.59	454.128
1152.62	454.322
1153.64	461.141
1154.67	459.283
1155.69	457.593
1156.72	450.837
1157.74	445.963
1158.77	438.964
1159.79	431.749
1160.82	423.784
1161.84	415.701
1162.86	406.687
1163.89	397.849
1164.91	389.734
1165.93	384.725
1166.96	381.313
1167.98	376.004
1169	375.438
1170.02	380.454
1171.04	383.329
1172.06	386
1173.09	389.471
1174.11	388.564
1175.13	380.133
1176.15	381.989
1177.17	384.574
1178.18	387.419
1179.2	390.732
1180.22	393.017
1181.24	396.025
1182.26	397.937
1183.28	398.713
1184.3	399.588
1185.31	399.763
1186.33	398.469
1187.35	395.439
1188.37	391.42
1189.38	385.725
1190.4	380.556
1191.41	373.031
1192.43	367.827
1193.44	363.158
1194.46	358.352
1195.48	354.631
1196.49	354.405
1197.5	351.805
1198.52	349.037
1199.53	347.075
1200.54	346.185
1201.56	345.39
1202.57	345.613
1203.58	346.339
1204.6	346.49
1205.61	347.31
1206.62	348.167
1207.63	349.671
1208.64	351.23
1209.65	352.6
1210.66	352.867
1211.67	353.42
1212.68	353.642
1213.69	353.945
1214.7	353.433
1215.71	352.555
1216.72	352.086
1217.73	352.197
1218.74	352.204
1219.75	352.896
1220.76	353.57
1221.76	354.794
1222.77	356.18
1223.78	356.984
1224.79	357.336
1225.79	356.477
1226.8	354.618
1227.8	352.459
1228.81	349.727
1229.82	346.842
1230.82	343.246
1231.83	339.048
1232.83	334.535
1233.84	329.77
1234.84	325.048
1235.84	320.89
1236.85	317.287
1237.85	313.82
1238.85	311.217
1239.86	309.704
1240.86	307.646
1241.86	306.394
1242.86	305.843
1243.86	305.027
1244.87	304.382
1245.87	304.063
1246.87	304.372
1247.87	304.234
1248.87	305.179
1249.87	306.109
1250.87	307.716
1251.87	309.14
1252.87	310.911
1253.87	311.67
1254.86	311.466
1255.86	310.894
1256.86	309.015
1257.86	307.868
1258.86	306.822
1259.85	306.46
1260.85	306.044
1261.85	304.974
1262.84	303.647
1263.84	302.339
1264.84	301.198
1265.83	299.932
1266.83	298.038
1267.82	296.481
1268.82	295.511
1269.81	294.427
1270.81	294.099
1271.8	293.501
1272.8	292.964
1273.79	291.813
1274.78	291.331
1275.77	290.205
1276.77	290.791
1277.76	291.085
1278.75	293.101
1279.74	295.975
1280.74	299.224
1281.73	302.253
1282.72	303.696
1283.71	305.186
1284.7	305.149
1285.69	303.727
1286.68	301.182
1287.67	300.218
1288.66	298.659
1289.65	296.898
1290.64	294.893
1291.63	293.152
1292.61	291.525
1293.6	289.822
1294.59	289.252
1295.58	288.464
1296.56	287.99
1297.55	287.665
1298.54	287.227
1299.52	286.488
1300.51	286.179
1301.5	284.805
1302.48	283.271
1303.47	282.602
1304.45	282.044
1305.44	281.417
1306.42	281.185
1307.41	281.09
1308.39	280.503
1309.37	279.727
1310.36	279.177
1311.34	278.704
1312.32	279.203
1313.31	278.865
1314.29	280.022
1315.27	281.522
1316.25	283.688
1317.23	286.246
1318.22	290.997
1319.2	294.353
1320.18	299.924
1321.16	303.632
1322.14	310.315
1323.12	317.419
1324.1	324.932
1325.08	327.642
1326.06	328.953
1327.04	327.463
1328.01	321.715
1328.99	314.646
1329.97	305.635
1330.95	299.943
1331.93	294.32
1332.9	288.787
1333.88	283.053
1334.86	277.656
1335.83	272.745
1336.81	268.987
1337.79	268.86
1338.76	266.736
1339.74	264.478
1340.71	262.402
1341.69	260.803
1342.66	259.458
1343.64	258.639
1344.61	257.762
1345.58	256.833
1346.56	256.032
1347.53	255.581
1348.5	254.894
1349.48	254.793
1350.45	254.918
1351.42	254.188
1352.39	252.816
1353.36	251.602
1354.34	250.468
1355.31	249.227
1356.28	248.42
1357.25	247.181
1358.22	246.39
1359.19	245.168
1360.16	244.798
1361.13	244.817
1362.1	244.751
1363.07	245.47
1364.03	246.022
1365	247.049
1365.97	247.442
1366.94	247.646
1367.91	247.732
1368.87	247.856
1369.84	247.729
1370.81	246.996
1371.77	246.531
1372.74	245.436
1373.71	244.311
1374.67	243.113
1375.64	242.05
1376.6	240.826
1377.57	240.203
1378.53	239.612
1379.5	239.577
1380.46	240.445
1381.42	241.038
1382.39	241.754
1383.35	241.94
1384.31	241.385
1385.28	240.803
1386.24	240.263
1387.2	239.154
1388.16	237.869
1389.13	236.459
1390.09	235.102
1391.05	234.317
1392.01	233.464
1392.97	233.098
1393.93	233.152
1394.89	232.854
1395.85	231.9
1396.81	230.591
1397.77	229.292
1398.73	227.874
1399.69	226.489
1400.64	225.236
1401.6	224.243
1402.56	222.994
1403.52	221.763
1404.48	220.551
1405.43	218.979
1406.39	217.662
1407.35	216.785
1408.3	216.107
1409.26	216.249
1410.22	217.562
1411.17	218.171
1412.13	218.568
1413.08	219.072
1414.04	219.541
1414.99	219.956
1415.94	220.445
1416.9	221.736
1417.85	222.493
1418.81	223.13
1419.76	223.325
1420.71	223.442
1421.66	222.892
1422.62	222.718
1423.57	221.926
1424.52	221.195
1425.47	221.167
1426.42	220.777
1427.37	220.516
1428.33	220.81
1429.28	221.301
1430.23	222.393
1431.18	223.243
1432.13	223.986
1433.07	224.628
1434.02	224.897
1434.97	225.422
1435.92	226.062
1436.87	226.665
1437.82	227.211
1438.77	226.53
1439.71	226.144
1440.66	223.532
1441.61	222.284
1442.55	219.827
1443.5	216.602
1444.45	212.177
1445.39	209.983
1446.34	207.129
1447.28	207.858
1448.23	209.692
1449.18	211.776
1450.12	216.576
1451.06	218.713
1452.01	220.031
1452.95	220.567
1453.9	217.515
1454.84	215.243
1455.78	213.972
1456.72	214.566
1457.67	213.684
1458.61	212.601
1459.55	211.256
1460.49	209.85
1461.43	208.724
1462.38	207.389
1463.32	205.759
1464.26	204.601
1465.2	203.707
1466.14	203.516
1467.08	203.355
1468.02	203.558
1468.96	204.076
1469.9	204.177
1470.83	203.99
1471.77	203.69
1472.71	203.567
1473.65	203.409
1474.59	203.35
1475.53	202.533
1476.46	202.279
1477.4	202.535
1478.34	202.891
1479.27	203.279
1480.21	203.631
1481.14	203.823
1482.08	203.745
1483.02	204.313
1483.95	204.191
1484.89	204.637
1485.82	205.474
1486.75	205.64
1487.69	205.832
1488.62	205.231
1489.56	204.721
1490.49	203.528
1491.42	202.58
1492.35	200.604
1493.29	199.41
1494.22	198.007
1495.15	197.785
1496.08	197.552
1497.01	197.496
1497.95	198.433
1498.88	199.435
1499.81	200.832
1500.74	201.102
1501.67	201.502
1502.6	201.519
1503.53	201.878
1504.46	202.465
1505.39	202.753
1506.31	202.217
1507.24	202.228
1508.17	203.421
1509.1	204.878
1510.03	207.368
1510.95	210.331
1511.88	215.094
1512.81	219.572
1513.74	226.745
1514.66	233.271
1515.59	240.271
1516.51	247.322
1517.44	254.562
1518.37	261.33
1519.29	266.969
1520.22	272.721
1521.14	277.83
1522.06	281.365
1522.99	285.123
1523.91	287.89
1524.84	288.824
1525.76	288.857
1526.68	287.58
1527.61	283.598
1528.53	279.61
1529.45	274.547
1530.37	268.474
1531.29	262.647
1532.21	256.784
1533.14	250.278
1534.06	243.258
1534.98	236.914
1535.9	229.892
1536.82	224.107
1537.74	218.361
1538.66	214.216
1539.58	211.565
1540.5	209.059
1541.42	207.121
1542.33	205.855
1543.25	205.089
1544.17	204.316
1545.09	203.887
1546.01	203.946
1546.92	205.225
1547.84	205.64
1548.76	205.622
1549.67	205.725
1550.59	205.786
1551.51	205.356
1552.42	205.181
1553.34	204.88
1554.25	204.055
1555.17	203.486
1556.08	202.226
1557	201.231
1557.91	200.108
1558.82	198.612
1559.74	196.883
1560.65	194.696
1561.56	192.718
1562.48	190.538
1563.39	189.274
1564.3	187.536
1565.21	185.673
1566.13	183.188
1567.04	181.269
1567.95	180.144
1568.86	179.257
1569.77	178.664
1570.68	178.393
1571.59	178.971
1572.5	179.697
1573.41	180.689
1574.32	181.369
1575.23	182.349
1576.14	182.78
1577.05	183.07
1577.95	183.197
1578.86	183.474
1579.77	183.647
1580.68	183.273
1581.59	183.329
1582.49	183.548
1583.4	183.542
1584.31	183.078
1585.21	182.838
1586.12	182.894
1587.02	183.146
1587.93	183.636
1588.84	184.337
1589.74	185.348
1590.65	186.205
1591.55	187.231
1592.45	188.332
1593.36	189.522
1594.26	191.057
1595.17	192.81
1596.07	195.005
1596.97	197.001
1597.87	198.631
1598.78	200.088
1599.68	201.608
1600.58	203.075
1601.48	204.125
1602.38	204.978
1603.29	205.714
1604.19	205.908
1605.09	205.754
1605.99	204.995
1606.89	203.721
1607.79	202.365
1608.69	200.953
1609.59	199.662
1610.49	198.477
1611.38	197.836
1612.28	197.356
1613.18	196.968
1614.08	196.79
1614.98	196.546
1615.87	196.273
1616.77	195.956
1617.67	195.561
1618.57	195.308
1619.46	195.01
1620.36	194.738
1621.25	194.501
1622.15	194.267
1623.05	193.98
1623.94	193.716
1624.84	193.437
1625.73	193.11
1626.62	192.792
1627.52	192.475
1628.41	192.062
1629.31	191.663
1630.2	191.254
1631.09	190.859
1631.99	190.484
1632.87	189.96
1633.8	189.217
1634.73	188.55
1635.65	187.929
1636.58	187.309
1637.51	186.776
1638.44	186.495
1639.37	186.206
1640.29	185.439
1641.22	185.001
1642.15	184.681
1643.08	185.17
1644	185.359
1644.93	185.646
1645.85	185.843
1646.78	185.63
1647.71	185.084
1648.63	184.781
1649.56	184.626
1650.48	184.599
1651.41	185.727
1652.33	185.664
1653.26	185.191
1654.18	183.123
1655.1	182.47
1656.03	181.725
1656.95	180.83
1657.87	180.053
1658.8	179.311
1659.72	178.439
1660.64	176.59
1661.56	175.2
1662.49	174.634
1663.41	174.517
1664.33	174.436
1665.25	174.975
1666.17	175.548
1667.09	176.117
1668.02	176.606
1668.94	176.931
1669.86	177.047
1670.78	176.929
1671.7	176.723
1672.62	176.481
1673.53	175.888
1674.45	175.242
1675.37	174.544
1676.29	174.503
1677.21	175.349
1678.13	176.207
1679.05	176.859
1679.96	177.362
1680.88	177.692
1681.8	177.802
1682.72	177.618
1683.63	176.982
1684.55	176.048
1685.47	174.756
1686.38	173.602
1687.3	172.773
1688.21	171.893
1689.13	170.584
1690.05	169.038
1690.96	167.557
1691.87	166.134
1692.79	165.019
1693.7	164.27
1694.62	163.931
1695.53	164.233
1696.45	164.532
1697.36	164.331
1698.27	164.079
1699.19	163.805
1700.1	163.441
1701.01	162.875
1701.92	162.271
1702.84	161.523
1703.75	161.186
1704.66	161.264
1705.57	161.067
1706.48	160.504
1707.39	159.921
1708.3	159.341
1709.21	158.4
1710.12	157.506
1711.03	156.688
1711.95	156.593
1712.85	157.031
1713.76	157.627
1714.67	157.445
1715.58	156.919
1716.49	156.393
1717.4	155.8
1718.31	155.219
1719.22	154.622
1720.12	154.1
1721.03	153.659
1721.94	153.309
1722.85	152.98
1723.75	152.773
1724.66	152.582
1725.57	152.478
1726.47	152.428
1727.38	152.414
1728.28	152.353
1729.19	152.597
1730.1	153.071
1731	153.581
1731.91	154.123
1732.81	154.637
1733.71	155.122
1734.62	155.563
1735.52	155.581
1736.43	155.616
1737.33	155.443
1738.23	155.126
1739.14	154.655
1740.04	154.052
1740.94	152.994
1741.85	151.825
1742.75	150.626
1743.65	149.457
1744.55	148.348
1745.45	147.328
1746.35	146.965
1747.26	146.579
1748.16	146.225
1749.06	146.272
1749.96	146.42
1750.86	146.591
1751.76	146.777
1752.66	146.929
1753.56	147.091
1754.46	147.377
1755.36	147.335
1756.25	147.213
1757.15	147.054
1758.05	146.815
1758.95	146.532
1759.85	146.209
1760.75	145.873
1761.64	145.537
1762.54	145.184
1763.44	144.829
1764.33	144.437
1765.23	144.059
1766.13	143.652
1767.02	143.291
1767.92	142.9
1768.82	142.553
1769.71	142.27
1770.61	141.956
1771.5	141.65
1772.4	141.363
1773.29	141.051
1774.19	140.729
1775.08	140.365
1775.97	139.999
1776.87	139.747
1777.76	139.5
1778.65	139.287
1779.55	139.121
1780.44	138.978
1781.33	138.855
1782.23	138.645
1783.12	138.386
1784.01	138.155
1784.9	137.875
1785.79	137.588
1786.68	137.204
1787.58	136.901
1788.47	136.599
1789.36	136.416
1790.25	136.244
1791.14	136.164
1792.03	136.071
1792.92	136.163
1793.81	136.193
1794.7	136.446
1795.58	136.626
1796.47	136.894
1797.36	137.146
1798.25	137.406
1799.14	136.982
