Acq. time (s)=	15
Accumulations=	2
Range (cm-¹)=	600...1800
Windows=	2
Autofocus=	Off
AutoExposure=	On
Spike filter=	Multiple accum.
Delay time (s)=	1
Binning=	1
Readout mode=	Signal
DeNoise=	Standard
ICS correction=	Off
Dark correction=	Off
Inst. Process=	Off
Instrument=	XploRA
Detector=	Syncerity
Objective=	x20LWD
Grating=	1200 gr/mm
Filter=	25%
Laser (nm)=	785 
Slit (µm)=	100 
Hole (µm)=	300 
Laser pol=	None
Raman pol=	None
Output=	Camera
StageXY=	Marzhauser
StageZ=	
X (µm)=	-7644.6
Y (µm)=	-1305.2
Project=	
Sample=	
Site=	
Title=	To6-T
Remark=	
Date=	14.10.2022 21:37
Acquired=	14.10.2022 21:37:21
600.787	636.889
601.956	648.879
603.126	658.923
604.294	671.074
605.463	680.026
606.631	688.6
607.8	695.054
608.967	699.667
610.135	704.17
611.302	706.936
612.468	710.922
613.635	714.661
614.802	718.07
615.968	721.221
617.133	723.838
618.299	725.594
619.464	727.421
620.629	729.562
621.793	731.527
622.958	735.601
624.121	737.687
625.285	740.747
626.448	742.877
627.612	743.64
628.774	742.854
629.937	741.747
631.099	741.039
632.261	740.547
633.423	742.158
634.584	742.536
635.745	743.552
636.906	744.044
638.066	743.399
639.227	743.461
640.386	743.683
641.546	743.14
642.705	743.059
643.864	742.753
645.023	741.033
646.181	739.893
647.339	737.44
648.497	736.303
649.655	734.832
650.812	733.972
651.969	734.124
653.125	734.182
654.282	734.026
655.438	734.819
656.593	736.847
657.75	738.502
658.905	739.811
660.059	741.138
661.214	742.109
662.368	742.235
663.522	740.922
664.676	739.58
665.83	738.95
666.983	738.399
668.136	737.578
669.288	736.902
670.441	736.554
671.592	737.082
672.744	736.583
673.895	737.289
675.046	739.391
676.197	740.218
677.348	741.435
678.498	742.883
679.648	743.533
680.798	744.359
681.947	745.276
683.096	745.768
684.245	745.481
685.394	745.277
686.542	746.589
687.69	746.118
688.837	745.468
689.984	744.025
691.132	741.88
692.278	740.016
693.425	737.664
694.571	737.912
695.717	745.105
696.863	744.394
698.008	742.99
699.152	740.901
700.298	738.354
701.442	736.835
702.586	734.994
703.73	734.454
704.873	732.238
706.017	726.831
707.16	723.725
708.302	722.308
709.445	720.607
710.586	718.964
711.729	717.508
712.87	715.041
714.012	713.95
715.152	713.231
716.293	703.769
717.433	712.631
718.573	712.464
719.713	711.313
720.853	711.266
721.991	711.478
723.131	711.866
724.269	711.833
725.408	711.451
726.545	711.111
727.683	710.925
728.821	710.585
729.958	710.627
731.095	710.518
732.231	711.292
733.368	711.466
734.503	712.995
735.639	714
736.775	715.724
737.91	716.431
739.045	717.429
740.179	718.246
741.313	720.027
742.447	721.163
743.581	722.399
744.714	723.095
745.847	722.838
746.98	721.89
748.113	720.302
749.245	719.361
750.377	717.984
751.509	715.74
752.64	712.818
753.771	708.671
754.902	703.504
756.033	698.191
757.163	692.766
758.293	687.637
759.423	683.958
760.551	681.346
761.681	678.067
762.81	676.152
763.938	673.804
765.066	671.155
766.194	668.057
767.321	665.138
768.449	662.3
769.576	659.796
770.703	657.552
771.83	655.517
772.955	653.143
774.081	650.495
775.207	648.991
776.332	648.265
777.457	647.969
778.582	647.272
779.707	647.288
780.831	647.693
781.954	647.026
783.078	646.353
784.201	645.224
785.324	644.11
786.447	642.452
787.569	640.526
788.691	637.794
789.813	635.001
790.935	632.209
792.056	629.119
793.177	626.789
794.297	625.168
795.418	622.724
796.539	619.532
797.658	617.518
798.777	615.264
799.897	613.956
801.016	612.219
802.134	610.825
803.253	609.969
804.371	608.685
805.489	607.008
806.606	605.916
807.723	605.511
808.84	605.456
809.957	605.233
811.073	605.896
812.19	605.845
813.305	606.031
814.421	605.243
815.536	604.949
816.651	603.491
817.766	601.864
818.88	600.355
819.994	599.369
821.108	598.074
822.221	596.852
823.335	594.864
824.448	594.196
825.56	592.485
826.673	589.79
827.784	588.043
828.897	586.658
830.008	584.998
831.119	584.111
832.23	582.853
833.341	582.363
834.451	580.618
835.561	580.244
836.671	579.093
837.78	578.784
838.89	576.781
839.998	574.549
841.108	580.457
842.216	588.83
843.324	589.979
844.431	590.184
845.539	590.089
846.646	590.353
847.753	589.873
848.859	580.836
849.966	583.333
851.071	576.51
852.178	571.664
853.283	562.118
854.388	584.048
855.494	582.399
856.598	580.248
857.703	578.219
858.806	573.614
859.91	554.878
861.014	553.235
862.116	554.195
863.22	554.733
864.322	553.809
865.425	553.952
866.527	550.721
867.628	549.923
868.73	548.296
869.831	546.861
870.932	546.976
872.032	546.224
873.133	545.636
874.233	544.8
875.333	543.526
876.432	542.05
877.532	540.241
878.631	538.344
879.729	536.658
880.828	534.541
881.926	532.644
883.023	531.857
884.121	531.167
885.218	530.278
886.315	530.471
887.412	530.449
888.508	530.757
889.604	532.305
890.699	533.58
891.795	534.396
892.89	534.989
893.985	535.696
895.08	536.012
896.174	536.425
897.268	535.33
898.362	533.799
899.456	531.502
900.549	531.614
901.642	531.769
902.734	531.801
903.827	532.193
904.919	532.111
906.011	532.407
907.102	533.281
908.193	534.34
909.284	535.676
910.375	537.057
911.465	538.553
912.555	538.646
913.645	539.056
914.734	539.612
915.824	539.315
916.913	536.232
918.001	533.284
919.09	530.835
920.177	528.331
921.266	524.994
922.353	522.089
923.44	519.802
924.527	516.551
925.614	513.415
926.7	510.695
927.786	508.217
928.873	505.21
929.958	502.676
931.043	499.644
932.128	497.258
933.213	493.812
934.297	491.158
935.381	489.6
936.465	487.884
937.549	486.114
938.632	484.792
939.715	483.774
940.798	481.74
941.881	480.315
942.962	477.893
944.044	476.095
945.125	474.343
946.207	472.804
947.288	471.918
948.368	471.679
949.449	472.336
950.529	471.317
951.61	470.799
952.689	470.413
953.769	470.508
954.847	470.417
955.926	470.823
957.004	472.081
958.082	473.316
959.16	473.767
960.238	474.462
961.316	475.359
962.392	474.792
963.469	472.222
964.546	469.705
965.622	468.181
966.698	466.648
967.774	465.934
968.849	465.186
969.924	465.09
970.998	465.183
972.073	465.243
973.148	464.818
974.221	465.716
975.295	465.811
976.369	465.849
977.441	466.117
978.514	466.639
979.587	469.095
980.659	471.882
981.731	475.058
982.802	478.037
983.874	481.128
984.945	483.566
986.016	485.282
987.087	485.535
988.157	485.218
989.227	483.423
990.296	481.161
991.366	478.553
992.435	475.739
993.504	473.006
994.573	471.336
995.641	469.836
996.709	469.929
997.777	470.291
998.844	468.888
999.911	467.629
1000.98	466.834
1002.05	466.261
1003.11	464.564
1004.18	462.087
1005.24	459.716
1006.31	456.443
1007.37	452.913
1008.44	451.376
1009.5	450.296
1010.57	446.624
1011.63	443.434
1012.7	440.915
1013.76	438.73
1014.82	436.689
1015.89	434.89
1016.95	433.453
1018.01	431.8
1019.07	430.057
1020.13	427.891
1021.2	426.801
1022.26	426.085
1023.32	425.193
1024.38	423.931
1025.44	421.895
1026.5	420.365
1027.56	418.377
1028.62	415.967
1029.68	414.734
1030.74	413.03
1031.8	412.781
1032.85	412.775
1033.91	412.459
1034.97	412.259
1036.03	411.405
1037.09	409.368
1038.14	406.004
1039.2	407.493
1040.26	408.887
1041.31	411.064
1042.37	409.238
1043.42	410.735
1044.48	412.496
1045.53	414.357
1046.59	416.005
1047.64	417.289
1048.7	417.177
1049.75	416.166
1050.81	414.39
1051.86	411.531
1052.91	408.738
1053.97	404.785
1055.02	402.531
1056.07	401.262
1057.12	399.953
1058.17	398.824
1059.23	397.933
1060.28	398.142
1061.33	398.928
1062.38	399.013
1063.43	399.114
1064.48	399.348
1065.53	400.105
1066.58	401.495
1067.63	402.725
1068.68	403.461
1069.72	403.322
1070.77	403.066
1071.82	402.067
1072.87	400.727
1073.92	399.111
1074.96	397.998
1076.01	396.236
1077.06	394.512
1078.1	392.162
1079.15	389.014
1080.2	385.924
1081.24	383.637
1082.29	382.265
1083.33	381.015
1084.38	379.457
1085.42	378.218
1086.47	376.803
1087.51	375.5
1088.55	375.343
1089.6	376.094
1090.64	376.183
1091.68	376.178
1092.73	374.7
1093.77	373.423
1094.81	372.003
1095.85	370.63
1096.89	370.081
1097.93	370.512
1098.98	371.408
1100.02	372.879
1101.06	374.765
1102.1	376.484
1103.14	378.671
1104.18	380.228
1105.21	382.172
1106.25	383.81
1107.29	384.536
1108.33	383.923
1109.37	383.595
1110.41	383.79
1111.44	383.362
1112.48	382.188
1113.52	380.197
1114.56	376.64
1115.59	373.03
1116.63	370.193
1117.66	367.577
1118.7	365.361
1119.73	363.367
1120.77	361.238
1121.8	360.246
1122.84	359.153
1123.87	358.662
1124.91	358.355
1125.94	357.738
1126.97	358.395
1128.01	359.234
1129.04	361.195
1130.07	363.302
1131.11	365.239
1132.14	367.439
1133.17	369.523
1134.2	369.218
1135.23	369.888
1136.26	371.042
1137.29	372.154
1138.32	378.564
1139.35	381.611
1140.38	383.574
1141.41	385.567
1142.44	387.523
1143.47	389.075
1144.5	390.505
1145.53	390.613
1146.56	392.464
1147.58	390.071
1148.61	393.492
1149.64	398.296
1150.67	400.07
1151.69	403.136
1152.72	408.512
1153.75	411.295
1154.77	413.037
1155.8	413.43
1156.82	412.516
1157.85	410.143
1158.87	406.134
1159.9	400.502
1160.92	391.418
1161.95	384.824
1162.97	376.66
1163.99	369.101
1165.02	361.756
1166.04	355.586
1167.06	351.007
1168.08	350.259
1169.11	349.107
1170.13	347.494
1171.15	347.855
1172.17	350.627
1173.19	351.727
1174.21	354.102
1175.23	356.842
1176.25	360.038
1177.27	362.241
1178.29	363.837
1179.31	364.831
1180.33	365.77
1181.35	366.798
1182.37	367.574
1183.39	368.088
1184.4	368.121
1185.42	368.11
1186.44	365.803
1187.46	363.075
1188.47	359.983
1189.49	356.207
1190.51	352.709
1191.52	349.553
1192.54	346.406
1193.55	343.812
1194.57	340.806
1195.58	337.86
1196.6	335.286
1197.61	333.607
1198.63	331.936
1199.64	330.498
1200.65	328.812
1201.67	327.577
1202.68	326.73
1203.69	327.2
1204.7	327.467
1205.72	327.976
1206.73	328.235
1207.74	329.551
1208.75	330.411
1209.76	330.831
1210.77	331.425
1211.78	331.944
1212.79	333.019
1213.8	333.651
1214.81	334.813
1215.82	335.095
1216.83	335.299
1217.84	335.626
1218.85	336.025
1219.86	336.491
1220.87	336.739
1221.87	337.583
1222.88	337.462
1223.89	338.039
1224.9	337.823
1225.9	336.54
1226.91	334.263
1227.92	332.616
1228.92	330.988
1229.93	328.894
1230.93	325.234
1231.94	321.224
1232.94	318.033
1233.95	314.881
1234.95	311.724
1235.95	309.196
1236.96	307.103
1237.96	305.664
1238.96	303.012
1239.97	300.245
1240.97	297.98
1241.97	296.722
1242.97	296.507
1243.98	297.297
1244.98	299.032
1245.98	299.021
1246.98	298.996
1247.98	299.018
1248.98	297.931
1249.98	295.263
1250.98	291.858
1251.98	289.986
1252.98	288.893
1253.98	287.776
1254.98	286.767
1255.98	286.889
1256.97	287.603
1257.97	288.785
1258.97	290.162
1259.97	289.551
1260.97	289.109
1261.96	289.283
1262.96	289.181
1263.95	290.858
1264.95	290.944
1265.95	291.149
1266.94	290.685
1267.94	289.999
1268.93	289.198
1269.93	288.049
1270.92	286.971
1271.92	286.305
1272.91	285.724
1273.9	285.1
1274.9	284.384
1275.89	284.335
1276.88	283.818
1277.87	283.863
1278.87	283.132
1279.86	283.231
1280.85	283.307
1281.84	284.92
1282.83	286.295
1283.82	286.953
1284.81	287.825
1285.81	288.779
1286.8	289.624
1287.79	289.006
1288.77	288.729
1289.76	287.643
1290.75	285.214
1291.74	282.577
1292.73	279.355
1293.72	276.516
1294.71	274.229
1295.69	272.42
1296.68	270.752
1297.67	273.036
1298.65	273.246
1299.64	274.135
1300.63	274.65
1301.61	275.101
1302.6	275.729
1303.58	275.411
1304.57	275.195
1305.55	274.263
1306.54	273.03
1307.52	270.636
1308.51	267.72
1309.49	264.953
1310.48	263.123
1311.46	261.78
1312.44	260.366
1313.42	260.136
1314.41	260.193
1315.39	260.48
1316.37	261.837
1317.35	264.498
1318.33	266.433
1319.32	270.095
1320.3	274.04
1321.28	278.294
1322.26	282.232
1323.24	286.334
1324.22	289.853
1325.2	291.132
1326.18	292.011
1327.15	291.316
1328.13	289.27
1329.11	286.684
1330.09	282.758
1331.07	278.446
1332.05	274.264
1333.02	270.474
1334	267.832
1334.98	265.773
1335.95	264.596
1336.93	262.86
1337.91	258.553
1338.88	257.193
1339.86	255.066
1340.83	253.195
1341.81	251.964
1342.78	251.406
1343.76	251.312
1344.73	254.236
1345.7	254.7
1346.68	253.272
1347.65	252.179
1348.62	250.657
1349.6	249.466
1350.57	248.986
1351.54	248.882
1352.51	249.176
1353.49	248.215
1354.46	250.463
1355.43	253.48
1356.4	255.98
1357.37	254.436
1358.34	253.691
1359.31	251.521
1360.28	241.216
1361.25	235.859
1362.22	232.684
1363.19	228.89
1364.16	226.294
1365.12	225.388
1366.09	225.032
1367.06	225.311
1368.03	225.781
1369	227.328
1369.96	229.043
1370.93	230.633
1371.9	232.287
1372.86	233.847
1373.83	235.713
1374.79	236.902
1375.76	237.135
1376.73	237.136
1377.69	237.406
1378.66	237.883
1379.62	238.282
1380.58	238.753
1381.55	238.827
1382.51	237.589
1383.48	236.81
1384.44	235.69
1385.4	234.443
1386.36	232.316
1387.33	230.771
1388.29	229.139
1389.25	227.859
1390.21	226.644
1391.17	225.828
1392.13	225.284
1393.09	224.764
1394.06	224.198
1395.01	223.625
1395.97	224.03
1396.93	224.171
1397.89	224.726
1398.85	223.963
1399.81	223.048
1400.77	221.217
1401.73	218.807
1402.69	217.864
1403.64	217.546
1404.6	217.054
1405.56	216.354
1406.52	215.416
1407.47	214.432
1408.43	213.754
1409.39	213.173
1410.34	213.087
1411.3	213.422
1412.25	213.586
1413.21	212.95
1414.16	212.811
1415.12	212.926
1416.07	212.483
1417.03	211.026
1417.98	210.29
1418.93	209.989
1419.89	208.726
1420.84	209.134
1421.79	209.85
1422.74	210.533
1423.7	210.974
1424.65	210.974
1425.6	211.222
1426.55	211.907
1427.5	213.086
1428.45	214.447
1429.4	216.29
1430.35	217.615
1431.3	219.283
1432.25	220.667
1433.2	221.702
1434.15	221.505
1435.1	220.997
1436.05	220.15
1437	219.408
1437.95	218.628
1438.89	218.094
1439.84	217.374
1440.79	216.735
1441.74	216.129
1442.68	215.277
1443.63	214.664
1444.58	214.187
1445.52	213.988
1446.47	213.699
1447.41	212.672
1448.36	212.01
1449.3	210.909
1450.25	210.023
1451.19	208.563
1452.14	207.396
1453.08	205.684
1454.03	204.92
1454.97	204.381
1455.91	203.56
1456.85	202.957
1457.8	202.502
1458.74	202.412
1459.68	202.346
1460.62	201.867
1461.57	201.5
1462.51	201.074
1463.45	200.312
1464.39	199.752
1465.33	198.849
1466.27	198.189
1467.21	197.758
1468.15	196.751
1469.09	195.438
1470.03	193.633
1470.97	193.405
1471.9	193.22
1472.84	193.8
1473.78	194.298
1474.72	194.301
1475.66	194.671
1476.59	194.491
1477.53	194.589
1478.47	193.834
1479.4	193.328
1480.34	193.563
1481.28	194.46
1482.21	195.643
1483.15	196.294
1484.08	196.84
1485.02	199.579
1485.95	201.032
1486.89	201.439
1487.82	201.125
1488.76	200.751
1489.69	200.229
1490.62	199.581
1491.56	198.824
1492.49	199.689
1493.42	199.307
1494.35	198.263
1495.29	196.217
1496.22	194.61
1497.15	193.456
1498.08	192.265
1499.01	191.102
1499.94	190.048
1500.87	188.938
1501.8	188.329
1502.73	187.912
1503.66	188.686
1504.59	189.549
1505.52	191.025
1506.45	192.807
1507.38	194.296
1508.31	195.79
1509.23	197.555
1510.16	200.033
1511.09	202.752
1512.02	205.626
1512.94	208.595
1513.87	212.296
1514.8	217.007
1515.72	222.273
1516.65	226.678
1517.58	231.923
1518.5	236.765
1519.43	241.737
1520.35	245.576
1521.28	249.604
1522.2	253.235
1523.12	256.778
1524.05	259.473
1524.97	262.827
1525.9	265.008
1526.82	265.677
1527.74	264.664
1528.66	261.397
1529.59	255.915
1530.51	250.912
1531.43	245.195
1532.35	240.122
1533.27	236.483
1534.19	235.772
1535.11	233.047
1536.04	227.627
1536.96	225.437
1537.88	223.349
1538.8	220.133
1539.71	211.414
1540.63	207.441
1541.55	203.649
1542.47	201.307
1543.39	199.177
1544.31	197.242
1545.23	195.443
1546.14	194.061
1547.06	192.906
1547.98	192.347
1548.89	193.634
1549.81	193.742
1550.73	193.744
1551.64	193.481
1552.56	192.946
1553.47	192.065
1554.39	190.645
1555.31	188.874
1556.22	187.454
1557.13	185.868
1558.05	184.616
1558.96	183.309
1559.88	181.529
1560.79	179.273
1561.7	177.103
1562.62	174.967
1563.53	172.751
1564.44	171.146
1565.35	169.495
1566.27	168.661
1567.18	166.943
1568.09	167.573
1569	167.278
1569.91	167.489
1570.82	167.577
1571.73	167.605
1572.64	167.51
1573.55	167.085
1574.46	166.632
1575.37	166.021
1576.28	165.623
1577.19	164.616
1578.1	163.81
1579	163.199
1579.91	162.944
1580.82	163.03
1581.73	163.27
1582.63	163.478
1583.54	163.418
1584.45	163.676
1585.35	163.859
1586.26	164.004
1587.17	164.354
1588.07	164.615
1588.98	165.251
1589.88	165.527
1590.79	164.669
1591.69	164.564
1592.6	164.689
1593.5	164.665
1594.4	165.067
1595.31	165.278
1596.21	164.884
1597.11	164.686
1598.02	164.995
1598.92	165.222
1599.82	165.469
1600.72	165.539
1601.63	165.535
1602.53	166.158
1603.43	166.696
1604.33	167.902
1605.23	168.335
1606.13	169.054
1607.03	170.264
1607.93	170.618
1608.83	170.217
1609.73	169.219
1610.63	168.501
1611.53	166.45
1612.43	165.468
1613.32	164.827
1614.22	163.319
1615.12	161.504
1616.02	159.98
1616.92	158.911
1617.81	158.204
1618.71	157.822
1619.61	157.788
1620.5	158.595
1621.4	159.011
1622.29	159.678
1623.19	160.747
1624.08	162.023
1624.98	162.744
1625.87	162.992
1626.77	163.113
1627.66	163.279
1628.56	163.432
1629.45	163.217
1630.34	162.572
1631.24	161.815
1632.13	161.21
1632.84	160.55
1633.77	159.324
1634.7	158.719
1635.63	157.765
1636.56	157.018
1637.49	156.07
1638.42	155.402
1639.34	155.248
1640.27	155.508
1641.2	156.023
1642.13	157.079
1643.05	157.516
1643.98	157.17
1644.91	156.839
1645.83	156.464
1646.76	155.902
1647.68	155.819
1648.61	155.518
1649.54	155.368
1650.46	154.588
1651.39	153.65
1652.31	152.165
1653.23	150.123
1654.16	149.204
1655.08	148.999
1656.01	148.654
1656.93	146.088
1657.85	147.446
1658.78	150.223
1659.7	152.596
1660.62	154.377
1661.54	155.221
1662.47	155.395
1663.39	151.879
1664.31	149.011
1665.23	147.488
1666.15	144.505
1667.07	144.431
1667.99	145.059
1668.92	150.446
1669.84	148.744
1670.76	148.93
1671.68	148.52
1672.6	148.022
1673.52	148.449
1674.43	148.253
1675.35	147.991
1676.27	147.466
1677.19	147.187
1678.11	146.774
1679.03	146.193
1679.95	145.231
1680.86	144.188
1681.78	142.741
1682.7	142.328
1683.61	142.062
1684.53	142.241
1685.45	142.708
1686.36	143.556
1687.28	144.637
1688.2	145.106
1689.11	145.099
1690.03	144.39
1690.94	143.536
1691.86	142.759
1692.77	142.718
1693.69	142.437
1694.6	140.901
1695.52	139.059
1696.43	137.377
1697.34	135.612
1698.26	134.102
1699.17	132.568
1700.08	131.738
1700.99	130.937
1701.91	130.367
1702.82	129.551
1703.73	131.114
1704.64	131.798
1705.55	132.081
1706.47	131.756
1707.38	131.878
1708.29	131.803
1709.2	131.936
1710.11	131.566
1711.02	131.83
1711.93	132.622
1712.84	133.78
1713.75	133.028
1714.66	132.854
1715.57	132.758
1716.48	132.935
1717.39	133.591
1718.29	133.769
1719.2	132.268
1720.11	130.338
1721.02	130.813
1721.93	133.662
1722.83	134.701
1723.74	132.743
1724.65	133.675
1725.55	134.133
1726.46	134.103
1727.37	133.919
1728.27	134.057
1729.18	134.124
1730.08	134.066
1730.99	132.599
1731.89	131.576
1732.8	131.386
1733.7	131.63
1734.61	131.758
1735.51	131.753
1736.42	131.948
1737.32	131.879
1738.22	132.766
1739.13	133.47
1740.03	133.878
1740.93	133.573
1741.83	133.486
1742.74	133.467
1743.64	133.178
1744.54	132.95
1745.44	133.206
1746.34	132.912
1747.24	132.236
1748.15	131.74
1749.05	131.577
1749.95	131.756
1750.85	131.687
1751.75	131.561
1752.65	131.171
1753.55	130.786
1754.45	129.915
1755.35	129.092
1756.25	127.913
1757.14	126.432
1758.04	124.821
1758.94	123.078
1759.84	121.39
1760.74	120.56
1761.63	119.676
1762.53	119.487
1763.43	119.387
1764.33	120.413
1765.22	121.883
1766.12	123.214
1767.02	124.127
1767.91	124.505
1768.81	124.548
1769.7	125.197
1770.6	125.645
1771.49	126.091
1772.39	125.925
1773.28	124.961
1774.18	124.02
1775.07	123.036
1775.97	122.518
1776.86	121.905
1777.75	121.27
1778.65	123.499
1779.54	123.741
1780.43	124.316
1781.33	124.617
1782.22	124.802
1783.11	124.292
1784	123.219
1784.89	122.459
1785.79	121.277
1786.68	120.293
1787.57	119.614
1788.46	119.105
1789.35	119.093
1790.24	119.172
1791.13	119.131
1792.02	119.676
1792.91	118.637
1793.8	117.66
1794.69	116.01
1795.58	114.919
1796.47	113.757
1797.36	112.215
1798.25	110.288
1799.13	108.377
