Acq. time (s)=	15
Accumulations=	2
Range (cm-¹)=	600...1800
Windows=	2
Autofocus=	Off
AutoExposure=	On
Spike filter=	Multiple accum.
Delay time (s)=	1
Binning=	1
Readout mode=	Signal
DeNoise=	Standard
ICS correction=	Off
Dark correction=	Off
Inst. Process=	Off
Instrument=	XploRA
Detector=	Syncerity
Objective=	x20LWD
Grating=	1200 gr/mm
Filter=	25%
Laser (nm)=	785 
Slit (µm)=	100 
Hole (µm)=	300 
Laser pol=	None
Raman pol=	None
Output=	Camera
StageXY=	Marzhauser
StageZ=	
X (µm)=	-1067.5
Y (µm)=	-7052.2
Project=	
Sample=	
Site=	
Title=	To5-T
Remark=	
Date=	14.10.2022 21:18
Acquired=	14.10.2022 21:18:19
600.787	257.032
601.956	260.867
603.126	264.467
604.294	267.869
605.463	271.192
606.631	274.417
607.8	277.174
608.967	280.452
610.135	283.396
611.302	285.817
612.468	288.038
613.635	290.332
614.802	292.787
615.968	295.279
617.133	297.649
618.299	299.972
619.464	302.156
620.629	304.254
621.793	306.187
622.958	308.004
624.121	309.634
625.285	311.114
626.448	312.317
627.612	313.265
628.774	314.05
629.937	314.583
631.099	314.878
632.261	314.842
633.423	314.563
634.584	314.053
635.745	313.681
636.906	313.938
638.066	314.376
639.227	314.741
640.386	314.954
641.546	315.09
642.705	315.365
643.864	315.78
645.023	316.463
646.181	317.38
647.339	318.952
648.497	320.686
649.655	322.533
650.812	324.248
651.969	325.325
653.125	326.172
654.282	326.75
655.438	327.084
656.593	327.21
657.75	327.182
658.905	327.012
660.059	326.737
661.214	326.429
662.368	326.332
663.522	325.909
664.676	325.595
665.83	325.306
666.983	325.07
668.136	325.429
669.288	326.401
670.441	327.436
671.592	328.509
672.744	329.301
673.895	329.711
675.046	329.987
676.197	330.105
677.348	331.107
678.498	332.28
679.648	333.497
680.798	334.694
681.947	335.855
683.096	336.923
684.245	337.81
685.394	338.637
686.542	339.173
687.69	339.338
688.837	339.172
689.984	339.638
691.132	341.425
692.278	342.9
693.425	342.756
694.571	342.134
695.717	341.277
696.863	340.918
698.008	342.574
699.152	343.072
700.298	343.687
701.442	343.706
702.586	339.198
703.73	336.911
704.873	333.391
706.017	331.104
707.16	327.474
708.302	325.047
709.445	323.037
710.586	321.464
711.729	320.031
712.87	322.243
714.012	322.022
715.152	322.78
716.293	322.911
717.433	322.797
718.573	322.515
719.713	322.291
720.853	321.578
721.991	320.906
723.131	320.066
724.269	319.37
725.408	319.003
726.545	319.166
727.683	319.679
728.821	320.604
729.958	322.115
731.095	323.828
732.231	325.717
733.368	327.632
734.503	329.192
735.639	330.759
736.775	332.295
737.91	333.824
739.045	335.512
740.179	337.263
741.313	339.584
742.447	341.148
743.581	339.654
744.714	337.441
745.847	334.664
746.98	331.395
748.113	328.12
749.245	324.069
750.377	321.725
751.509	320.236
752.64	319.613
753.771	319.139
754.902	318.386
756.033	317.345
757.163	314.328
758.293	312.273
759.423	310.852
760.551	308.743
761.681	307.682
762.81	307.34
763.938	307.351
765.066	306.956
766.194	306.513
767.321	306.117
768.449	306.148
769.576	306.518
770.703	306.729
771.83	306.799
772.955	306.532
774.081	306.186
775.207	305.644
776.332	305.02
777.457	303.144
778.582	300.395
779.707	297.407
780.831	294.838
781.954	293.037
783.078	291.946
784.201	291.841
785.324	292.41
786.447	293.003
787.569	293.503
788.691	293.965
789.813	294.252
790.935	294.473
792.056	294.576
793.177	294.438
794.297	294.199
795.418	293.701
796.539	293.101
797.658	292.241
798.777	291.234
799.897	290.092
801.016	288.717
802.134	287.163
803.253	285.457
804.371	283.716
805.489	281.955
806.606	281.206
807.723	280.637
808.84	280.239
809.957	279.334
811.073	278.539
812.19	277.939
813.305	277.69
814.421	277.411
815.536	277.344
816.651	277.211
817.766	277.292
818.88	277.824
819.994	278.366
821.108	278.039
822.221	277.122
823.335	276.08
824.448	275.046
825.56	274.199
826.673	273.723
827.784	273.206
828.897	272.752
830.008	272.91
831.119	273.661
832.23	274.065
833.341	274.483
834.451	274.878
835.561	275.133
836.671	275.551
837.78	275.893
838.89	276.158
839.998	276.495
841.108	276.42
842.216	275.845
843.324	274.811
844.431	273.833
845.539	272.821
846.646	271.778
847.753	270.952
848.859	270.067
849.966	269.292
851.071	268.618
852.178	268.023
853.283	267.495
854.388	267.06
855.494	266.692
856.598	266.325
857.703	266.003
858.806	265.715
859.91	265.436
861.014	265.166
862.116	264.816
863.22	264.263
864.322	263.756
865.425	262.544
866.527	260.882
867.628	259.104
868.73	257.248
869.831	255.472
870.932	253.62
872.032	251.895
873.133	249.985
874.233	248.3
875.333	246.92
876.432	246.959
877.532	247.379
878.631	248.049
879.729	248.747
880.828	249.561
881.926	250.594
883.023	250.925
884.121	250.374
885.218	250.12
886.315	251.633
887.412	252.1
888.508	252.059
889.604	251.436
890.699	250.724
891.795	250.038
892.89	249.313
893.985	248.453
895.08	247.657
896.174	246.818
897.268	246.087
898.362	245.41
899.456	244.76
900.549	244.263
901.642	243.827
902.734	243.745
903.827	244.129
904.919	244.194
906.011	244.233
907.102	243.699
908.193	243.312
909.284	243.096
910.375	242.977
911.465	243.03
912.555	243.123
913.645	243.349
914.734	243.595
915.824	243.872
916.913	244.13
918.001	244.291
919.09	244.653
920.177	244.812
921.266	244.65
922.353	243.863
923.44	243.079
924.527	242.009
925.614	240.814
926.7	238.913
927.786	236.925
928.873	234.965
929.958	233.592
931.043	232.924
932.128	232.407
933.213	232.039
934.297	231.796
935.381	230.713
936.465	229.497
937.549	228.244
938.632	227.077
939.715	226.088
940.798	225.446
941.881	225.089
942.962	224.877
944.044	225.1
945.125	225.594
946.207	226.16
947.288	226.723
948.368	226.942
949.449	226.679
950.529	226.116
951.61	225.278
952.689	224.097
953.769	222.751
954.847	221.266
955.926	219.94
957.004	218.286
958.082	216.729
959.16	215.312
960.238	214.34
961.316	214.313
962.392	214.529
963.469	215.027
964.546	215.635
965.622	216.084
966.698	216.511
967.774	217.196
968.849	218.019
969.924	218.037
970.998	217.498
972.073	217.044
973.148	216.616
974.221	216.342
975.295	216.196
976.369	216.248
977.441	216.423
978.514	216.8
979.587	217.357
980.659	218.001
981.731	218.682
982.802	219.242
983.874	219.306
984.945	219.035
986.016	218.632
987.087	218.317
988.157	218.221
989.227	218.285
990.296	218.425
991.366	218.697
992.435	219.054
993.504	219.627
994.573	219.91
995.641	219.895
996.709	220.177
997.777	220.882
998.844	221.705
999.911	220.107
1000.98	218.839
1002.05	217.542
1003.11	216.945
1004.18	216.39
1005.24	216.132
1006.31	215.86
1007.37	213.883
1008.44	212.282
1009.5	211.179
1010.57	210.005
1011.63	208.748
1012.7	206.795
1013.76	204.676
1014.82	202.552
1015.89	200.253
1016.95	198.011
1018.01	195.873
1019.07	193.873
1020.13	192.211
1021.2	190.772
1022.26	189.545
1023.32	188.631
1024.38	187.927
1025.44	187.441
1026.5	187.353
1027.56	187.475
1028.62	187.602
1029.68	187.961
1030.74	188.399
1031.8	188.916
1032.85	189.381
1033.91	189.875
1034.97	190.349
1036.03	190.776
1037.09	191.147
1038.14	191.437
1039.2	191.666
1040.26	191.822
1041.31	191.769
1042.37	191.775
1043.42	191.928
1044.48	191.844
1045.53	191.614
1046.59	191.303
1047.64	190.976
1048.7	190.496
1049.75	189.983
1050.81	189.365
1051.86	188.694
1052.91	187.983
1053.97	187.279
1055.02	186.559
1056.07	185.76
1057.12	184.914
1058.17	184.122
1059.23	183.883
1060.28	184.115
1061.33	184.585
1062.38	184.975
1063.43	185.264
1064.48	185.507
1065.53	185.705
1066.58	185.766
1067.63	185.785
1068.68	185.592
1069.72	185.251
1070.77	184.791
1071.82	184.022
1072.87	183.234
1073.92	182.241
1074.96	181.159
1076.01	180.065
1077.06	179.052
1078.1	178.2
1079.15	178.301
1080.2	178.647
1081.24	179.033
1082.29	179.943
1083.33	180.939
1084.38	180.392
1085.42	178.375
1086.47	177.015
1087.51	175.814
1088.55	174.783
1089.6	174.238
1090.64	174.996
1091.68	175.711
1092.73	176.773
1093.77	178.053
1094.81	176.887
1095.85	175.75
1096.89	174.593
1097.93	173.678
1098.98	172.969
1100.02	172.798
1101.06	172.599
1102.1	172.592
1103.14	172.884
1104.18	173.205
1105.21	173.625
1106.25	174.245
1107.29	174.802
1108.33	175.303
1109.37	175.732
1110.41	176.064
1111.44	176.364
1112.48	176.463
1113.52	176.436
1114.56	176.122
1115.59	175.684
1116.63	175.18
1117.66	174.379
1118.7	173.574
1119.73	172.661
1120.77	171.587
1121.8	170.417
1122.84	169.102
1123.87	167.506
1124.91	165.746
1125.94	164.038
1126.97	162.46
1128.01	160.983
1129.04	160.613
1130.07	160.341
1131.11	160.348
1132.14	160.7
1133.17	161.319
1134.2	162.27
1135.23	163.449
1136.26	164.999
1137.29	166.788
1138.32	168.904
1139.35	171.331
1140.38	173.792
1141.41	175.999
1142.44	177.44
1143.47	178.57
1144.5	179.723
1145.53	181.125
1146.56	182.859
1147.58	184.529
1148.61	185.866
1149.64	186.794
1150.67	187.55
1151.69	188.928
1152.72	190.809
1153.75	192.557
1154.77	193.933
1155.8	194.056
1156.82	193.727
1157.85	192.922
1158.87	191.577
1159.9	189.31
1160.92	186.259
1161.95	180.362
1162.97	172.769
1163.99	169.778
1165.02	170.364
1166.04	169.815
1167.06	167.069
1168.08	165.024
1169.11	163.42
1170.13	162.31
1171.15	161.356
1172.17	160.826
1173.19	159.752
1174.21	159.92
1175.23	161.111
1176.25	162.796
1177.27	164.119
1178.29	165.72
1179.31	167.01
1180.33	168.58
1181.35	169.857
1182.37	171.07
1183.39	172.044
1184.4	172.876
1185.42	173.514
1186.44	173.734
1187.46	172.013
1188.47	169.966
1189.49	167.562
1190.51	164.907
1191.52	162.173
1192.54	159.673
1193.55	157.227
1194.57	154.851
1195.58	152.578
1196.6	150.444
1197.61	148.601
1198.63	147.191
1199.64	146.228
1200.65	146.412
1201.67	146.83
1202.68	147.121
1203.69	147.592
1204.7	148.271
1205.72	149.127
1206.73	150.073
1207.74	151.132
1208.75	152.226
1209.76	153.307
1210.77	154.416
1211.78	155.373
1212.79	156.261
1213.8	156.989
1214.81	157.589
1215.82	157.632
1216.83	157.077
1217.84	156.016
1218.85	155.756
1219.86	155.853
1220.87	156.3
1221.87	156.825
1222.88	156.536
1223.89	155.785
1224.9	154.995
1225.9	154.087
1226.91	153.142
1227.92	151.929
1228.92	150.68
1229.93	149.5
1230.93	149.191
1231.94	148.918
1232.94	147.871
1233.95	146.641
1234.95	145.119
1235.95	143.481
1236.96	141.912
1237.96	140.499
1238.96	140.041
1239.97	139.779
1240.97	139.41
1241.97	138.984
1242.97	138.496
1243.98	138.095
1244.98	137.686
1245.98	137.337
1246.98	136.854
1247.98	136.337
1248.98	135.854
1249.98	135.343
1250.98	134.869
1251.98	134.345
1252.98	133.868
1253.98	133.414
1254.98	132.953
1255.98	132.456
1256.97	132.003
1257.97	131.792
1258.97	131.619
1259.97	131.47
1260.97	131.53
1261.96	131.624
1262.96	131.632
1263.95	131.644
1264.95	131.695
1265.95	131.619
1266.94	131.471
1267.94	130.917
1268.93	130.616
1269.93	130.123
1270.92	129.573
1271.92	129.059
1272.91	128.629
1273.9	128.256
1274.9	127.99
1275.89	128.052
1276.88	128.354
1277.87	128.756
1278.87	129.22
1279.86	130.088
1280.85	131.145
1281.84	132.451
1282.83	133.823
1283.82	135.355
1284.81	137.031
1285.81	138.139
1286.8	138.25
1287.79	138.304
1288.77	137.708
1289.76	136.983
1290.75	136.292
1291.74	134.972
1292.73	133.606
1293.72	132.368
1294.71	130.935
1295.69	130.12
1296.68	129.053
1297.67	128.07
1298.65	127.382
1299.64	127.037
1300.63	126.954
1301.61	126.813
1302.6	126.969
1303.58	127.74
1304.57	128.248
1305.55	128.333
1306.54	128.552
1307.52	129.187
1308.51	129.106
1309.49	129.316
1310.48	128.049
1311.46	125.4
1312.44	123.387
1313.42	121.531
1314.41	120.365
1315.39	121.62
1316.37	123.097
1317.35	122.909
1318.33	122.477
1319.32	119.004
1320.3	120.964
1321.28	122.969
1322.26	126.737
1323.24	130.061
1324.22	134.294
1325.2	136.854
1326.18	137.033
1327.15	136.873
1328.13	136.288
1329.11	135.602
1330.09	135.121
1331.07	132.873
1332.05	130.794
1333.02	128.809
1334	127.221
1334.98	125.87
1335.95	124.69
1336.93	123.498
1337.91	122.144
1338.88	120.986
1339.86	120.175
1340.83	119.528
1341.81	118.975
1342.78	118.848
1343.76	118.827
1344.73	118.595
1345.7	118.294
1346.68	117.868
1347.65	117.426
1348.62	117.153
1349.6	116.844
1350.57	116.564
1351.54	116.777
1352.51	117.141
1353.49	117.544
1354.46	117.758
1355.43	117.643
1356.4	116.884
1357.37	115.838
1358.34	114.62
1359.31	113.382
1360.28	112.066
1361.25	110.807
1362.22	110.43
1363.19	110.032
1364.16	109.567
1365.12	109.22
1366.09	109.052
1367.06	109.003
1368.03	108.965
1369	109.046
1369.96	109.872
1370.93	110.944
1371.9	111.341
1372.86	111.947
1373.83	112.289
1374.79	112.255
1375.76	112.256
1376.73	111.929
1377.69	111.169
1378.66	110.332
1379.62	109.514
1380.58	108.957
1381.55	108.474
1382.51	107.991
1383.48	107.58
1384.44	107.13
1385.4	107.06
1386.36	107.295
1387.33	107.486
1388.29	107.469
1389.25	107.433
1390.21	107.38
1391.17	107.341
1392.13	107.364
1393.09	107.552
1394.06	107.771
1395.01	108.198
1395.97	107.431
1396.93	106.508
1397.89	105.68
1398.85	104.902
1399.81	104.201
1400.77	103.706
1401.73	103.562
1402.69	104.419
1403.64	105.096
1404.6	104.471
1405.56	103.563
1406.52	102.825
1407.47	102.111
1408.43	101.511
1409.39	101.017
1410.34	100.735
1411.3	100.703
1412.25	100.416
1413.21	100.418
1414.16	100.638
1415.12	100.758
1416.07	101.498
1417.03	101.735
1417.98	101.359
1418.93	100.936
1419.89	100.648
1420.84	99.8871
1421.79	99.3979
1422.74	98.6664
1423.7	97.67
1424.65	97.4399
1425.6	97.1893
1426.55	97.7019
1427.5	98.3427
1428.45	99.0781
1429.4	99.8837
1430.35	101.002
1431.3	101.86
1432.25	103.366
1433.2	104.672
1434.15	105.705
1435.1	105.623
1436.05	105.256
1437	104.738
1437.95	104.556
1438.89	103.794
1439.84	103.208
1440.79	102.646
1441.74	102.269
1442.68	102.076
1443.63	102.082
1444.58	102.096
1445.52	101.894
1446.47	101.25
1447.41	100.816
1448.36	100.42
1449.3	100.579
1450.25	100.264
1451.19	100.082
1452.14	99.6036
1453.08	99.1119
1454.03	98.5549
1454.97	98.0649
1455.91	97.6516
1456.85	96.7134
1457.8	95.7344
1458.74	94.8877
1459.68	94.0651
1460.62	93.538
1461.57	93.3118
1462.51	93.1977
1463.45	93.3787
1464.39	93.5774
1465.33	94.1824
1466.27	94.806
1467.21	95.4743
1468.15	96.0815
1469.09	95.9955
1470.03	95.5627
1470.97	95.2881
1471.9	94.8511
1472.84	94.5875
1473.78	94.1221
1474.72	94.2223
1475.66	94.3673
1476.59	94.6185
1477.53	94.409
1478.47	94.4389
1479.4	94.4609
1480.34	94.6801
1481.28	94.8469
1482.21	95.1324
1483.15	95.3932
1484.08	95.8518
1485.02	96.0637
1485.95	96.1413
1486.89	95.6724
1487.82	95.2489
1488.76	94.7898
1489.69	94.7183
1490.62	94.4645
1491.56	94.2194
1492.49	93.9013
1493.42	93.5955
1494.35	92.6677
1495.29	91.7711
1496.22	90.5886
1497.15	88.0947
1498.08	86.079
1499.01	90.8321
1499.94	90.609
1500.87	90.1644
1501.8	89.6885
1502.73	89.236
1503.66	88.7633
1504.59	88.3334
1505.52	88.0633
1506.45	88.3311
1507.38	89.4374
1508.31	90.0706
1509.23	90.953
1510.16	92.4807
1511.09	94.5798
1512.02	96.8482
1512.94	98.8869
1513.87	101.311
1514.8	103.681
1515.72	105.641
1516.65	107.19
1517.58	109.319
1518.5	111.459
1519.43	113.442
1520.35	115.134
1521.28	116.455
1522.2	117.437
1523.12	118.186
1524.05	119.272
1524.97	120.395
1525.9	121.285
1526.82	121.798
1527.74	122.09
1528.66	122.056
1529.59	120.867
1530.51	119.679
1531.43	118.461
1532.35	116.42
1533.27	114.171
1534.19	111.91
1535.11	109.563
1536.04	106.974
1536.96	104.52
1537.88	101.955
1538.8	99.3826
1539.71	97.2571
1540.63	95.4697
1541.55	94.0281
1542.47	93.0906
1543.39	92.472
1544.31	92.1164
1545.23	91.6525
1546.14	91.3898
1547.06	91.1459
1547.98	90.7998
1548.89	90.1918
1549.81	89.685
1550.73	89.1801
1551.64	88.8655
1552.56	88.4709
1553.47	87.4177
1554.39	86.3927
1555.31	85.6499
1556.22	85.2811
1557.13	84.9846
1558.05	84.2493
1558.96	83.6004
1559.88	83.173
1560.79	82.7713
1561.7	82.4498
1562.62	82.0664
1563.53	81.6216
1564.44	81.0431
1565.35	80.6976
1566.27	79.913
1567.18	78.7559
1568.09	77.6046
1569	76.4393
1569.91	75.9624
1570.82	75.6098
1571.73	75.5317
1572.64	75.5265
1573.55	75.703
1574.46	76.1043
1575.37	76.3764
1576.28	76.452
1577.19	76.4032
1578.1	76.4765
1579	75.9816
1579.91	75.7416
1580.82	75.6938
1581.73	75.9541
1582.63	76.9822
1583.54	77.2594
1584.45	77.4267
1585.35	77.3459
1586.26	77.264
1587.17	77.1039
1588.07	76.8708
1588.98	76.7006
1589.88	77.153
1590.79	77.0831
1591.69	76.8113
1592.6	76.4861
1593.5	76.0971
1594.4	75.7456
1595.31	75.2551
1596.21	74.9309
1597.11	75.1069
1598.02	75.5776
1598.92	76.4144
1599.82	77.4382
1600.72	78.1636
1601.63	78.6555
1602.53	79.1745
1603.43	79.5059
1604.33	79.733
1605.23	79.8475
1606.13	79.8957
1607.03	79.7987
1607.93	79.6307
1608.83	79.4588
1609.73	79.2161
1610.63	78.8147
1611.53	78.3158
1612.43	77.7115
1613.32	77.1593
1614.22	76.6643
1615.12	76.2371
1616.02	75.9159
1616.92	75.633
1617.81	75.4302
1618.71	75.2715
1619.61	75.1775
1620.5	75.112
1621.4	75.0402
1622.29	75.1316
1623.19	75.447
1624.08	75.8392
1624.98	76.2556
1625.87	76.6984
1626.77	77.1155
1627.66	77.5063
1628.56	77.7037
1629.45	77.6345
1630.34	77.5772
1631.24	77.4054
1632.13	77.1897
1632.84	76.8723
1633.77	75.9427
1634.7	74.9876
1635.63	74.0065
1636.56	73.0658
1637.49	72.1581
1638.42	71.3521
1639.34	70.7262
1640.27	70.5015
1641.2	70.2706
1642.13	70.3233
1643.05	70.4702
1643.98	70.8788
1644.91	71.4084
1645.83	72.0972
1646.76	72.8228
1647.68	72.4955
1648.61	72.3768
1649.54	72.3831
1650.46	72.5626
1651.39	73.4388
1652.31	74.1142
1653.23	74.8508
1654.16	75.7712
1655.08	74.7514
1656.01	73.6305
1656.93	72.7863
1657.85	72.0004
1658.78	71.3882
1659.7	70.925
1660.62	70.5803
1661.54	70.2651
1662.47	69.9983
1663.39	69.7632
1664.31	69.5921
1665.23	69.5504
1666.15	69.346
1667.07	69.1471
1667.99	68.9661
1668.92	68.6745
1669.84	68.4568
1670.76	68.2885
1671.68	68.2125
1672.6	68.1368
1673.52	68.128
1674.43	68.1582
1675.35	68.1838
1676.27	68.3442
1677.19	68.4117
1678.11	68.4975
1679.03	68.5558
1679.95	68.598
1680.86	68.6115
1681.78	68.6154
1682.7	68.5856
1683.61	68.5471
1684.53	68.4848
1685.45	68.0716
1686.36	67.851
1687.28	68.0167
1688.2	67.9256
1689.11	67.9367
1690.03	68.3068
1690.94	68.4051
1691.86	68.5267
1692.77	68.6
1693.69	68.6887
1694.6	68.7395
1695.52	68.2639
1696.43	67.3968
1697.34	66.5
1698.26	65.5962
1699.17	64.6179
1700.08	63.438
1700.99	62.2876
1701.91	61.4074
1702.82	61.7014
1703.73	62.6499
1704.64	63.8026
1705.55	64.2515
1706.47	64.5449
1707.38	64.759
1708.29	64.91
1709.2	64.9817
1710.11	65.0251
1711.02	65.0051
1711.93	64.9742
1712.84	64.9403
1713.75	64.8648
1714.66	64.8428
1715.57	64.8219
1716.48	64.7316
1717.39	64.6254
1718.29	64.5005
1719.2	64.3183
1720.11	64.1377
1721.02	63.9057
1721.93	63.6654
1722.83	63.3857
1723.74	63.0931
1724.65	62.6564
1725.55	62.1278
1726.46	62.079
1727.37	61.7329
1728.27	61.3418
1729.18	60.9699
1730.08	60.5554
1730.99	60.1297
1731.89	59.7091
1732.8	59.4219
1733.7	59.4418
1734.61	59.3898
1735.51	59.9496
1736.42	60.5492
1737.32	61.2146
1738.22	62.0677
1739.13	59.4541
1740.03	55.6206
1740.93	57.5061
1741.83	57.1805
1742.74	58.9811
1743.64	66.0906
1744.54	64.1008
1745.44	57.757
1746.34	55.6314
1747.24	55.6377
1748.15	59.21
1749.05	58.6436
1749.95	58.4843
1750.85	58.6284
1751.75	58.4688
1752.65	58.3369
1753.55	58.8717
1754.45	59.7144
1755.35	60.744
1756.25	61.3282
1757.14	61.2125
1758.04	61.0887
1758.94	60.9256
1759.84	60.8262
1760.74	60.7553
1761.63	60.8546
1762.53	60.647
1763.43	61.0204
1764.33	61.4719
1765.22	61.9538
1766.12	62.1477
1767.02	60.264
1767.91	57.3287
1768.81	57.6379
1769.7	58.0907
1770.6	58.7724
1771.49	59.3842
1772.39	59.6099
1773.28	59.7249
1774.18	59.7055
1775.07	59.6021
1775.97	59.261
1776.86	58.9107
1777.75	58.629
1778.65	58.4016
1779.54	57.7469
1780.43	56.9214
1781.33	56.5676
1782.22	56.3047
1783.11	55.3714
1784	55.1926
1784.89	55.4121
1785.79	56.0729
1786.68	56.9815
1787.57	58.0314
1788.46	58.993
1789.35	58.9486
1790.24	58.3819
1791.13	57.9258
1792.02	57.5065
1792.91	57.3709
1793.8	57.1065
1794.69	56.6138
1795.58	56.1195
1796.47	55.6894
1797.36	55.2965
1798.25	55.0979
1799.13	56.4875
