Acq. time (s)=	15
Accumulations=	2
Range (cm-¹)=	600...1800
Windows=	2
Autofocus=	Off
AutoExposure=	On
Spike filter=	Multiple accum.
Delay time (s)=	1
Binning=	1
Readout mode=	Signal
DeNoise=	Standard
ICS correction=	Off
Dark correction=	Off
Inst. Process=	Off
Instrument=	XploRA
Detector=	Syncerity
Objective=	x20LWD
Grating=	1200 gr/mm
Filter=	25%
Laser (nm)=	785 
Slit (µm)=	100 
Hole (µm)=	300 
Laser pol=	None
Raman pol=	None
Output=	Camera
StageXY=	Marzhauser
StageZ=	
X (µm)=	-7847.3
Y (µm)=	-650.8
Project=	
Sample=	
Site=	
Title=	To2-T
Remark=	
Date=	14.10.2022 19:20
Acquired=	14.10.2022 19:20:43
600.787	1405.61
601.956	1425.45
603.126	1443.76
604.294	1461.27
605.463	1475.8
606.631	1489.44
607.8	1502.12
608.967	1514.22
610.135	1523.65
611.302	1532.38
612.468	1540.44
613.635	1547.99
614.802	1555.51
615.968	1562.84
617.133	1570.09
618.299	1574.83
619.464	1582.15
620.629	1589.7
621.793	1597.49
622.958	1605.3
624.121	1612.86
625.285	1621.25
626.448	1627.79
627.612	1631.09
628.774	1635.11
629.937	1638.55
631.099	1642.39
632.261	1646.35
633.423	1651.58
634.584	1653.24
635.745	1653.13
636.906	1651.62
638.066	1649.13
639.227	1645.75
640.386	1643.91
641.546	1642.05
642.705	1639.25
643.864	1634.57
645.023	1626.21
646.181	1623.75
647.339	1624.99
648.497	1624.47
649.655	1623.75
650.812	1623.31
651.969	1627.99
653.125	1630.52
654.282	1630.33
655.438	1629.23
656.593	1627.77
657.75	1626.07
658.905	1624.69
660.059	1623.98
661.214	1622.32
662.368	1620.76
663.522	1619.44
664.676	1619.6
665.83	1620.57
666.983	1621.85
668.136	1624.27
669.288	1627.13
670.441	1630.38
671.592	1632.91
672.744	1635.27
673.895	1637.96
675.046	1640.34
676.197	1642.3
677.348	1643.73
678.498	1644.11
679.648	1642.8
680.798	1641.31
681.947	1639.69
683.096	1638.21
684.245	1637.3
685.394	1636.34
686.542	1635.53
687.69	1634.68
688.837	1633.58
689.984	1632.53
691.132	1629.96
692.278	1629.9
693.425	1628.5
694.571	1627.66
695.717	1627.2
696.863	1626.51
698.008	1625.5
699.152	1624.18
700.298	1622.14
701.442	1619.45
702.586	1615.41
703.73	1610.79
704.873	1605.94
706.017	1600.74
707.16	1595.43
708.302	1590.08
709.445	1585.72
710.586	1581.3
711.729	1576.95
712.87	1572.38
714.012	1568.2
715.152	1564.38
716.293	1561.18
717.433	1559.95
718.573	1559.59
719.713	1560.64
720.853	1561.63
721.991	1561.6
723.131	1560.5
724.269	1561.61
725.408	1561.64
726.545	1561.91
727.683	1562.62
728.821	1563.99
729.958	1565.88
731.095	1568.22
732.231	1570.6
733.368	1574.54
734.503	1579.22
735.639	1583.52
736.775	1586.25
737.91	1588.47
739.045	1590.87
740.179	1593.6
741.313	1596.72
742.447	1599.72
743.581	1599.79
744.714	1596.64
745.847	1590.49
746.98	1585.02
748.113	1577.84
749.245	1570.13
750.377	1564.06
751.509	1558.35
752.64	1552.62
753.771	1546.72
754.902	1540.24
756.033	1533.07
757.163	1522.45
758.293	1511.41
759.423	1500.97
760.551	1492.77
761.681	1482.88
762.81	1474.57
763.938	1467.44
765.066	1459.62
766.194	1453.48
767.321	1449.09
768.449	1445.8
769.576	1442.97
770.703	1439.07
771.83	1435.91
772.955	1432.94
774.081	1430.28
775.207	1427.46
776.332	1424.62
777.457	1421.8
778.582	1419.04
779.707	1415.41
780.831	1411.12
781.954	1406.27
783.078	1401.21
784.201	1397.29
785.324	1393.36
786.447	1389.46
787.569	1382.83
788.691	1378.02
789.813	1374.26
790.935	1368.1
792.056	1363.79
793.177	1361.12
794.297	1359.23
795.418	1357.6
796.539	1354.82
797.658	1352.39
798.777	1352.16
799.897	1351.27
801.016	1345.43
802.134	1340.5
803.253	1334.9
804.371	1329.49
805.489	1323.12
806.606	1317.28
807.723	1312.58
808.84	1308.71
809.957	1305.55
811.073	1304.74
812.19	1305.83
813.305	1303.53
814.421	1301.56
815.536	1299.89
816.651	1298.41
817.766	1298.07
818.88	1298.06
819.994	1298.7
821.108	1298.94
822.221	1297.98
823.335	1297.44
824.448	1297.36
825.56	1297.54
826.673	1300.56
827.784	1300.49
828.897	1299.32
830.008	1298
831.119	1296.62
832.23	1295.11
833.341	1293.49
834.451	1291.91
835.561	1290.2
836.671	1288.61
837.78	1286.79
838.89	1284.28
839.998	1282.93
841.108	1280.69
842.216	1277.12
843.324	1273.07
844.431	1271.03
845.539	1269
846.646	1267.05
847.753	1266.62
848.859	1264.9
849.966	1263.28
851.071	1261.13
852.178	1259.45
853.283	1257.18
854.388	1253.05
855.494	1249.17
856.598	1244.5
857.703	1239.01
858.806	1233.95
859.91	1229.32
861.014	1224.24
862.116	1219.94
863.22	1217.24
864.322	1214.5
865.425	1210.09
866.527	1206.13
867.628	1202.59
868.73	1199.16
869.831	1195.85
870.932	1192.59
872.032	1189.85
873.133	1187.47
874.233	1185.55
875.333	1183.74
876.432	1179.49
877.532	1176.01
878.631	1172.69
879.729	1169.86
880.828	1169.19
881.926	1168.97
883.023	1168.06
884.121	1167.62
885.218	1167.47
886.315	1164.95
887.412	1163.04
888.508	1161.57
889.604	1160.55
890.699	1159.57
891.795	1158.65
892.89	1157.87
893.985	1156.53
895.08	1155.38
896.174	1154.71
897.268	1154.1
898.362	1150.88
899.456	1144.09
900.549	1138.86
901.642	1137.6
902.734	1135.17
903.827	1135.53
904.919	1137.31
906.011	1141.15
907.102	1146.01
908.193	1151.71
909.284	1159.98
910.375	1165.63
911.465	1171.77
912.555	1175.52
913.645	1178.13
914.734	1178.55
915.824	1176.82
916.913	1172.67
918.001	1166.47
919.09	1159.05
920.177	1149.78
921.266	1142.96
922.353	1133.75
923.44	1124.03
924.527	1113.75
925.614	1103.21
926.7	1093.78
927.786	1086.77
928.873	1080.03
929.958	1079.08
931.043	1076.23
932.128	1072.94
933.213	1070.02
934.297	1067.97
935.381	1065.82
936.465	1064.13
937.549	1061.44
938.632	1058.7
939.715	1055.75
940.798	1053.74
941.881	1050.36
942.962	1047.22
944.044	1044.41
945.125	1042.08
946.207	1040.83
947.288	1040.11
948.368	1039.75
949.449	1039.7
950.529	1039.68
951.61	1039.74
952.689	1039.25
953.769	1038.36
954.847	1036.99
955.926	1033.69
957.004	1029.91
958.082	1026.12
959.16	1022.45
960.238	1019.97
961.316	1018.31
962.392	1017.06
963.469	1016.08
964.546	1014.48
965.622	1012.55
966.698	1011.05
967.774	1010.81
968.849	1006.85
969.924	1004.24
970.998	1003.18
972.073	1003.17
973.148	1004.38
974.221	1005.63
975.295	1009.14
976.369	1012.71
977.441	1017.2
978.514	1022.51
979.587	1028.22
980.659	1034.32
981.731	1039.49
982.802	1043.99
983.874	1046.42
984.945	1047.74
986.016	1047.84
987.087	1046.34
988.157	1043.86
989.227	1040.19
990.296	1036.61
991.366	1032.78
992.435	1027.14
993.504	1022.07
994.573	1016.99
995.641	1013.25
996.709	1009.92
997.777	1006.89
998.844	1003.99
999.911	1001.15
1000.98	999.401
1002.05	996.566
1003.11	993.052
1004.18	989.769
1005.24	986.978
1006.31	984.643
1007.37	983.542
1008.44	981.632
1009.5	974.72
1010.57	967.598
1011.63	960.749
1012.7	954.64
1013.76	949.309
1014.82	944.971
1015.89	942.276
1016.95	940.579
1018.01	935.309
1019.07	929.832
1020.13	923.118
1021.2	917.993
1022.26	911.967
1023.32	907.016
1024.38	903.105
1025.44	901.18
1026.5	898.14
1027.56	896.735
1028.62	895.08
1029.68	892.206
1030.74	889.535
1031.8	887.64
1032.85	886.398
1033.91	884.659
1034.97	884.884
1036.03	885.964
1037.09	886.807
1038.14	886.831
1039.2	886.593
1040.26	886.821
1041.31	886.164
1042.37	886.476
1043.42	887.055
1044.48	887.345
1045.53	887.073
1046.59	887.868
1047.64	886.045
1048.7	883.395
1049.75	879.538
1050.81	875.226
1051.86	871.463
1052.91	865.772
1053.97	855.92
1055.02	854.115
1056.07	853.249
1057.12	858.957
1058.17	856.213
1059.23	854.005
1060.28	851.979
1061.33	850.699
1062.38	849.379
1063.43	852.512
1064.48	852.902
1065.53	852.867
1066.58	853.27
1067.63	853.627
1068.68	853.155
1069.72	851.675
1070.77	850.257
1071.82	847.627
1072.87	845.408
1073.92	842.585
1074.96	839.319
1076.01	836.338
1077.06	832.911
1078.1	829.631
1079.15	825.596
1080.2	819.94
1081.24	815.093
1082.29	810.729
1083.33	807.704
1084.38	806.421
1085.42	805.254
1086.47	809.081
1087.51	808.425
1088.55	806.812
1089.6	804.021
1090.64	801.526
1091.68	797.52
1092.73	792.287
1093.77	789.829
1094.81	790.783
1095.85	792.126
1096.89	799.541
1097.93	801.21
1098.98	801.648
1100.02	800.386
1101.06	799.285
1102.1	790.643
1103.14	801.59
1104.18	802.785
1105.21	801.926
1106.25	801.122
1107.29	801.23
1108.33	802.666
1109.37	802.899
1110.41	801.059
1111.44	798.035
1112.48	794.821
1113.52	791.467
1114.56	788.135
1115.59	788.457
1116.63	786.058
1117.66	783.63
1118.7	780.565
1119.73	778.492
1120.77	776.28
1121.8	773.695
1122.84	771.134
1123.87	768.908
1124.91	766.691
1125.94	765.196
1126.97	764.602
1128.01	764.128
1129.04	762.519
1130.07	758.572
1131.11	759.208
1132.14	759.867
1133.17	761.521
1134.2	766.102
1135.23	772.357
1136.26	780.839
1137.29	788.646
1138.32	799.875
1139.35	808.772
1140.38	814.7
1141.41	820.913
1142.44	825.737
1143.47	830.196
1144.5	833.905
1145.53	830.179
1146.56	832.666
1147.58	834.311
1148.61	836.743
1149.64	837.49
1150.67	837.284
1151.69	843.05
1152.72	848.485
1153.75	856.107
1154.77	865.584
1155.8	879.503
1156.82	879.329
1157.85	876.954
1158.87	869.326
1159.9	857.009
1160.92	828.778
1161.95	809.915
1162.97	793.011
1163.99	786.044
1165.02	773.65
1166.04	762.705
1167.06	754.116
1168.08	745.808
1169.11	739.803
1170.13	732.733
1171.15	730.485
1172.17	730.911
1173.19	732.081
1174.21	735.266
1175.23	740.623
1176.25	746.39
1177.27	753.362
1178.29	759.667
1179.31	765.705
1180.33	770.882
1181.35	775.22
1182.37	779.829
1183.39	786.561
1184.4	789.36
1185.42	789.65
1186.44	787.491
1187.46	782.994
1188.47	777.734
1189.49	771.797
1190.51	766.192
1191.52	757.8
1192.54	748.202
1193.55	738.847
1194.57	729.144
1195.58	719.719
1196.6	710.524
1197.61	702.597
1198.63	696.712
1199.64	691.907
1200.65	687.468
1201.67	685.633
1202.68	683.534
1203.69	682.024
1204.7	681.273
1205.72	681.75
1206.73	683.386
1207.74	687.373
1208.75	689.556
1209.76	691.459
1210.77	693.783
1211.78	696.052
1212.79	698.544
1213.8	700.857
1214.81	701.995
1215.82	703.019
1216.83	704.546
1217.84	705.44
1218.85	705.337
1219.86	705.389
1220.87	704.797
1221.87	704.663
1222.88	703.841
1223.89	704.067
1224.9	704.184
1225.9	704.649
1226.91	703.938
1227.92	701.899
1228.92	697.915
1229.93	693.192
1230.93	687.023
1231.94	680.458
1232.94	673.459
1233.95	667.54
1234.95	660.661
1235.95	654.116
1236.96	648.218
1237.96	642.674
1238.96	637.601
1239.97	632.86
1240.97	629.094
1241.97	626.9
1242.97	624.451
1243.98	622.034
1244.98	621.222
1245.98	619.404
1246.98	617.872
1247.98	615.516
1248.98	612.611
1249.98	610.409
1250.98	608.203
1251.98	605.697
1252.98	604.9
1253.98	605.726
1254.98	606.572
1255.98	607.849
1256.97	608.502
1257.97	609.565
1258.97	610.362
1259.97	610.76
1260.97	609.917
1261.96	608.796
1262.96	607.239
1263.95	605.701
1264.95	604.449
1265.95	600.305
1266.94	597.94
1267.94	595.063
1268.93	592.903
1269.93	591.167
1270.92	589.441
1271.92	588.289
1272.91	587.418
1273.9	587.237
1274.9	586.76
1275.89	587.082
1276.88	586.923
1277.87	587.003
1278.87	588.143
1279.86	587.49
1280.85	585.806
1281.84	584.745
1282.83	585.347
1283.82	588.325
1284.81	592.577
1285.81	598.185
1286.8	606.878
1287.79	611.89
1288.77	610.909
1289.76	608.258
1290.75	568.447
1291.74	580.732
1292.73	584.998
1293.72	579.971
1294.71	575.162
1295.69	574.442
1296.68	573.08
1297.67	572.003
1298.65	570.829
1299.64	569.584
1300.63	568.293
1301.61	567.66
1302.6	567.815
1303.58	567.726
1304.57	566.953
1305.55	566.391
1306.54	565.037
1307.52	564.187
1308.51	561.051
1309.49	559.117
1310.48	555.954
1311.46	553.157
1312.44	550.609
1313.42	548.168
1314.41	546.581
1315.39	546.245
1316.37	546.37
1317.35	547.272
1318.33	548.833
1319.32	549.126
1320.3	558.057
1321.28	567.995
1322.26	581.485
1323.24	594.783
1324.22	608.59
1325.2	622.645
1326.18	634.857
1327.15	641.374
1328.13	632.207
1329.11	624.294
1330.09	616.13
1331.07	604.618
1332.05	590.633
1333.02	578.137
1334	567.308
1334.98	556.319
1335.95	548.007
1336.93	543.005
1337.91	537.396
1338.88	529.649
1339.86	524.93
1340.83	520.805
1341.81	517.74
1342.78	515.421
1343.76	513.648
1344.73	512.787
1345.7	512.547
1346.68	513.456
1347.65	513.945
1348.62	514.205
1349.6	513.105
1350.57	511.625
1351.54	508.899
1352.51	506.633
1353.49	504.103
1354.46	500.984
1355.43	498.954
1356.4	497.177
1357.37	495.582
1358.34	493.858
1359.31	491.271
1360.28	488.729
1361.25	486.42
1362.22	484.569
1363.19	482.531
1364.16	481.141
1365.12	480.476
1366.09	480.78
1367.06	479.9
1368.03	479.185
1369	478.143
1369.96	477.804
1370.93	477.707
1371.9	479.74
1372.86	481.435
1373.83	482.838
1374.79	484.521
1375.76	485.196
1376.73	486.09
1377.69	485.269
1378.66	483.617
1379.62	481.691
1380.58	481.011
1381.55	480.49
1382.51	479.262
1383.48	478.064
1384.44	476.977
1385.4	475.471
1386.36	473.651
1387.33	472.351
1388.29	470.568
1389.25	470.062
1390.21	469.611
1391.17	469.919
1392.13	469.781
1393.09	469.621
1394.06	468.362
1395.01	466.216
1395.97	464.39
1396.93	461.753
1397.89	459.637
1398.85	457.867
1399.81	455.995
1400.77	453.621
1401.73	450.198
1402.69	446.984
1403.64	443.653
1404.6	440.554
1405.56	437.601
1406.52	435.276
1407.47	434.393
1408.43	434.742
1409.39	435.555
1410.34	436.839
1411.3	439.09
1412.25	440.921
1413.21	441.516
1414.16	442.82
1415.12	443.689
1416.07	443.935
1417.03	443.206
1417.98	442.383
1418.93	441.45
1419.89	440.859
1420.84	439.049
1421.79	436.484
1422.74	434.591
1423.7	432.786
1424.65	431.852
1425.6	432.39
1426.55	434.576
1427.5	436.184
1428.45	438.023
1429.4	439.994
1430.35	442.348
1431.3	444.559
1432.25	446.585
1433.2	449.807
1434.15	452.709
1435.1	455.937
1436.05	458.089
1437	458.826
1437.95	459.396
1438.89	458.753
1439.84	457.869
1440.79	456.504
1441.74	454.434
1442.68	450.904
1443.63	448.477
1444.58	445.295
1445.52	441.781
1446.47	437.431
1447.41	433.935
1448.36	431.088
1449.3	427.811
1450.25	424.03
1451.19	420.919
1452.14	419.4
1453.08	417.568
1454.03	416.148
1454.97	413.119
1455.91	411.276
1456.85	409.356
1457.8	408.284
1458.74	407.633
1459.68	406.845
1460.62	406.759
1461.57	406.965
1462.51	407.512
1463.45	408.291
1464.39	408.903
1465.33	409.373
1466.27	407.844
1467.21	407.1
1468.15	405.564
1469.09	404.983
1470.03	405.071
1470.97	404.907
1471.9	405.262
1472.84	405.438
1473.78	405.22
1474.72	405.47
1475.66	405.527
1476.59	406.067
1477.53	406.406
1478.47	406.167
1479.4	405.295
1480.34	406.164
1481.28	407.28
1482.21	408.927
1483.15	410.911
1484.08	413.239
1485.02	415.132
1485.95	417.519
1486.89	419.441
1487.82	420.064
1488.76	419.863
1489.69	418.208
1490.62	416.961
1491.56	414.96
1492.49	412.395
1493.42	409.077
1494.35	402.476
1495.29	399.315
1496.22	396.367
1497.15	393.327
1498.08	391.384
1499.01	390.262
1499.94	389.057
1500.87	388.289
1501.8	387.675
1502.73	387.158
1503.66	386.961
1504.59	387.255
1505.52	388.927
1506.45	390.587
1507.38	392.841
1508.31	395.827
1509.23	400.353
1510.16	405.537
1511.09	411.002
1512.02	416.676
1512.94	423.627
1513.87	431.892
1514.8	439.902
1515.72	448.809
1516.65	458.315
1517.58	467.759
1518.5	477.649
1519.43	487.287
1520.35	498.042
1521.28	508.002
1522.2	516.394
1523.12	524.067
1524.05	530.431
1524.97	533.958
1525.9	535.665
1526.82	534.694
1527.74	532.023
1528.66	528.876
1529.59	523.604
1530.51	517.928
1531.43	511.754
1532.35	504.162
1533.27	495.937
1534.19	486.834
1535.11	476.92
1536.04	467.038
1536.96	458.001
1537.88	449.22
1538.8	439.931
1539.71	431.329
1540.63	423.206
1541.55	417.14
1542.47	409.902
1543.39	405.104
1544.31	400.895
1545.23	398.771
1546.14	398.399
1547.06	398.862
1547.98	398.832
1548.89	400.392
1549.81	400.576
1550.73	400.51
1551.64	399.895
1552.56	400.289
1553.47	398.66
1554.39	396.878
1555.31	393.199
1556.22	388.06
1557.13	382.687
1558.05	377.885
1558.96	373.054
1559.88	368.498
1560.79	364.499
1561.7	361.537
1562.62	359.235
1563.53	357.469
1564.44	354.817
1565.35	352.672
1566.27	350.687
1567.18	349.445
1568.09	348.057
1569	346.769
1569.91	345.87
1570.82	345.028
1571.73	344.285
1572.64	343.276
1573.55	342.438
1574.46	341.757
1575.37	341.518
1576.28	341.865
1577.19	342.368
1578.1	343.49
1579	344.717
1579.91	346.102
1580.82	347.334
1581.73	348.394
1582.63	349.521
1583.54	350.429
1584.45	351.051
1585.35	351.097
1586.26	351.064
1587.17	351.088
1588.07	351.118
1588.98	350.419
1589.88	349.857
1590.79	349.412
1591.69	348.896
1592.6	348.497
1593.5	348.39
1594.4	348.226
1595.31	348.104
1596.21	348.344
1597.11	348.693
1598.02	349.204
1598.92	349.644
1599.82	350.18
1600.72	350.45
1601.63	350.332
1602.53	350.629
1603.43	351.035
1604.33	351.326
1605.23	351.76
1606.13	352.082
1607.03	352.533
1607.93	353.157
1608.83	353.782
1609.73	354.659
1610.63	355.393
1611.53	355.852
1612.43	356.194
1613.32	356.057
1614.22	356.074
1615.12	355.783
1616.02	355.355
1616.92	354.684
1617.81	353.932
1618.71	353.195
1619.61	352.421
1620.5	351.615
1621.4	350.49
1622.29	349.217
1623.19	347.864
1624.08	346.691
1624.98	346.015
1625.87	345.888
1626.77	345.462
1627.66	344.785
1628.56	343.77
1629.45	342.671
1630.34	341.666
1631.24	340.753
1632.13	339.985
1632.84	339.288
1633.77	338.209
1634.7	337.269
1635.63	336.406
1636.56	335.685
1637.49	335.043
1638.42	334.445
1639.34	334.163
1640.27	333.952
1641.2	333.825
1642.13	333.751
1643.05	333.7
1643.98	333.722
1644.91	333.976
1645.83	333.806
1646.76	333.473
1647.68	332.99
1648.61	332.546
1649.54	332.1
1650.46	331.649
1651.39	331.281
1652.31	330.922
1653.23	330.614
1654.16	330.683
1655.08	330.66
1656.01	330.629
1656.93	330.723
1657.85	331.065
1658.78	331.423
1659.7	331.733
1660.62	332.039
1661.54	332.294
1662.47	332.428
1663.39	332.434
1664.31	331.801
1665.23	331.014
1666.15	330.126
1667.07	329.009
1667.99	327.757
1668.92	326.443
1669.84	325.089
1670.76	323.752
1671.68	322.37
1672.6	321.311
1673.52	320.164
1674.43	319.305
1675.35	318.572
1676.27	318.113
1677.19	317.543
1678.11	316.836
1679.03	316.08
1679.95	314.709
1680.86	314.385
1681.78	314.353
1682.7	314.389
1683.61	314.447
1684.53	314.496
1685.45	314.424
1686.36	314.136
1687.28	313.675
1688.2	313.183
1689.11	312.618
1690.03	312.015
1690.94	311.407
1691.86	310.916
1692.77	310.229
1693.69	309.452
1694.6	308.222
1695.52	305.523
1696.43	302.252
1697.34	299.748
1698.26	298.117
1699.17	297.494
1700.08	297.326
1700.99	302.89
1701.91	302.825
1702.82	302.792
1703.73	302.207
1704.64	301.303
1705.55	299.912
1706.47	298.074
1707.38	295.415
1708.29	292.567
1709.2	286.379
1710.11	282.823
1711.02	280.117
1711.93	280.239
1712.84	279.368
1713.75	278.829
1714.66	278.948
1715.57	279.854
1716.48	285.259
1717.39	290.482
1718.29	300.571
1719.2	296.579
1720.11	287.403
1721.02	284.224
1721.93	286.562
1722.83	286.501
1723.74	287.648
1724.65	286.33
1725.55	286.178
1726.46	286.419
1727.37	286.76
1728.27	287.051
1729.18	287.142
1730.08	286.878
1730.99	286.404
1731.89	285.703
1732.8	284.876
1733.7	283.924
1734.61	282.74
1735.51	280.886
1736.42	279.016
1737.32	277.295
1738.22	277.237
1739.13	277.575
1740.03	278.299
1740.93	277.662
1741.83	276.817
1742.74	275.948
1743.64	275.055
1744.54	274.262
1745.44	273.366
1746.34	272.777
1747.24	272.238
1748.15	271.81
1749.05	271.445
1749.95	271.053
1750.85	270.285
1751.75	269.496
1752.65	268.719
1753.55	267.628
1754.45	266.782
1755.35	266.038
1756.25	265.394
1757.14	264.999
1758.04	264.843
1758.94	264.859
1759.84	264.78
1760.74	265.199
1761.63	265.686
1762.53	266.173
1763.43	266.658
1764.33	267.104
1765.22	267.32
1766.12	267.431
1767.02	267.365
1767.91	267.037
1768.81	266.603
1769.7	266.002
1770.6	265.18
1771.49	264.154
1772.39	262.993
1773.28	261.219
1774.18	259.61
1775.07	258.056
1775.97	257.105
1776.86	256.235
1777.75	256.151
1778.65	256.331
1779.54	256.593
1780.43	256.906
1781.33	257.297
1782.22	257.561
1783.11	257.572
1784	257.424
1784.89	257.317
1785.79	257.216
1786.68	257.026
1787.57	256.696
1788.46	256.28
1789.35	255.678
1790.24	254.76
1791.13	253.188
1792.02	251.735
1792.91	250.266
1793.8	249.031
1794.69	249.064
1795.58	250.219
1796.47	251.971
1797.36	253.82
1798.25	254.657
1799.13	256.299
