Acq. time (s)=	15
Accumulations=	2
Range (cm-¹)=	600...1800
Windows=	2
Autofocus=	Off
AutoExposure=	On
Spike filter=	Multiple accum.
Delay time (s)=	1
Binning=	1
Readout mode=	Signal
DeNoise=	Standard
ICS correction=	Off
Dark correction=	Off
Inst. Process=	Off
Instrument=	XploRA
Detector=	Syncerity
Objective=	x20LWD
Grating=	1200 gr/mm
Filter=	25%
Laser (nm)=	785 
Slit (µm)=	100 
Hole (µm)=	300 
Laser pol=	None
Raman pol=	None
Output=	Camera
StageXY=	Marzhauser
StageZ=	
X (µm)=	-2372.9
Y (µm)=	-1083.1
Project=	
Sample=	
Site=	
Title=	To3-T
Remark=	
Date=	14.10.2022 20:06
Acquired=	14.10.2022 20:06:14
600.787	462.892
601.956	467.608
603.126	472.237
604.294	477.421
605.463	480.775
606.631	484.987
607.8	488.62
608.967	491.062
610.135	492.429
611.302	492.73
612.468	493.788
613.635	494.955
614.802	496.301
615.968	497.813
617.133	499.408
618.299	500.719
619.464	502.006
620.629	501.548
621.793	502.387
622.958	503.687
624.121	505.132
625.285	507.174
626.448	510.653
627.612	513.478
628.774	515.852
629.937	517.687
631.099	518.939
632.261	519.519
633.423	519.4
634.584	518.439
635.745	519.289
636.906	520.284
638.066	521.068
639.227	521.311
640.386	520.488
641.546	518.73
642.705	519.333
643.864	519.821
645.023	521.275
646.181	523.432
647.339	523.582
648.497	523.37
649.655	523.194
650.812	522.67
651.969	520.79
653.125	519.886
654.282	519.364
655.438	519.396
656.593	519.856
657.75	521.056
658.905	522.688
660.059	524.67
661.214	525.759
662.368	528.099
663.522	531.691
664.676	535.548
665.83	537.543
666.983	538.341
668.136	538.929
669.288	538.645
670.441	537.571
671.592	535.49
672.744	532.826
673.895	530.027
675.046	526.86
676.197	524.226
677.348	522.634
678.498	521.71
679.648	521.341
680.798	521.89
681.947	523.336
683.096	526.707
684.245	527.834
685.394	528.711
686.542	529.245
687.69	529.153
688.837	528.672
689.984	525.918
691.132	525.468
692.278	524.347
693.425	523.117
694.571	521.59
695.717	520.35
696.863	519.53
698.008	519.059
699.152	519.701
700.298	520.331
701.442	520.669
702.586	520.88
703.73	521.5
704.873	521.596
706.017	519.622
707.16	519.887
708.302	520.816
709.445	520.712
710.586	519.592
711.729	518.187
712.87	517.142
714.012	515.876
715.152	514.109
716.293	511.787
717.433	509.082
718.573	506.197
719.713	503.621
720.853	502.209
721.991	501.651
723.131	504.85
724.269	507.355
725.408	508.391
726.545	509.394
727.683	510.471
728.821	511.556
729.958	512.763
731.095	513.951
732.231	515.173
733.368	516.454
734.503	517.86
735.639	519.536
736.775	521.603
737.91	522.483
739.045	522.797
740.179	522.733
741.313	523.959
742.447	525.428
743.581	527.455
744.714	528.556
745.847	528.246
746.98	526.417
748.113	524.673
749.245	523.229
750.377	521.714
751.509	518.98
752.64	516.135
753.771	512.969
754.902	509.613
756.033	506.337
757.163	503.088
758.293	499.805
759.423	496.671
760.551	493.611
761.681	491.066
762.81	489.226
763.938	487.512
765.066	485.169
766.194	482.882
767.321	480.683
768.449	478.574
769.576	476.646
770.703	474.86
771.83	472.931
772.955	470.953
774.081	468.923
775.207	467.043
776.332	465.414
777.457	464.43
778.582	464.07
779.707	463.71
780.831	463.091
781.954	462.421
783.078	461.808
784.201	461.189
785.324	460.578
786.447	459.932
787.569	459.663
788.691	459.317
789.813	458.707
790.935	457.265
792.056	455.208
793.177	452.33
794.297	449.12
795.418	446.144
796.539	443.28
797.658	441.415
798.777	439.834
799.897	438.658
801.016	437.751
802.134	437.03
803.253	436.267
804.371	435.616
805.489	435.106
806.606	434.665
807.723	434.287
808.84	434.159
809.957	433.862
811.073	432.562
812.19	431.002
813.305	428.571
814.421	427.129
815.536	426.147
816.651	426.046
817.766	426.247
818.88	426.608
819.994	426.921
821.108	427.173
822.221	427.429
823.335	427.742
824.448	427.977
825.56	428.161
826.673	428.25
827.784	428.077
828.897	427.788
830.008	427.336
831.119	426.353
832.23	424.847
833.341	424.352
834.451	423.585
835.561	422.55
836.671	421.406
837.78	420.231
838.89	418.914
839.998	417.723
841.108	416.558
842.216	415.98
843.324	416.076
844.431	416.393
845.539	416.486
846.646	417.254
847.753	418.018
848.859	418.16
849.966	418.025
851.071	417.361
852.178	416.185
853.283	414.868
854.388	413.371
855.494	411.951
856.598	410.526
857.703	409.286
858.806	407.358
859.91	405.317
861.014	403.014
862.116	400.52
863.22	398.438
864.322	396.12
865.425	393.767
866.527	391.51
867.628	389.327
868.73	387.266
869.831	385.382
870.932	383.644
872.032	382.411
873.133	381.394
874.233	380.582
875.333	380.219
876.432	380.09
877.532	380.521
878.631	381.843
879.729	383.267
880.828	384.191
881.926	384.747
883.023	385.126
884.121	385.205
885.218	384.812
886.315	384.188
887.412	383.438
888.508	382.914
889.604	382.242
890.699	381.744
891.795	381.368
892.89	380.297
893.985	378.927
895.08	377.594
896.174	376.352
897.268	375.546
898.362	374.854
899.456	374.139
900.549	373.564
901.642	373.074
902.734	372.823
903.827	373.223
904.919	373.883
906.011	374.775
907.102	375.778
908.193	376.533
909.284	377.177
910.375	377.483
911.465	379.723
912.555	380.743
913.645	380.929
914.734	379.753
915.824	377.142
916.913	374.857
918.001	372.617
919.09	370.601
920.177	368.402
921.266	366.335
922.353	364.393
923.44	363.044
924.527	361.867
925.614	360.578
926.7	358.944
927.786	357.143
928.873	355.585
929.958	354.073
931.043	352.615
932.128	351.072
933.213	349.461
934.297	347.494
935.381	345.278
936.465	343.477
937.549	342.437
938.632	341.667
939.715	341.146
940.798	340.889
941.881	340.739
942.962	340.781
944.044	340.801
945.125	340.763
946.207	340.567
947.288	340.409
948.368	340.595
949.449	340.851
950.529	341.206
951.61	340.776
952.689	339.657
953.769	338.542
954.847	337.324
955.926	336.272
957.004	335.183
958.082	334.212
959.16	333.252
960.238	332.3
961.316	331.531
962.392	330.924
963.469	330.313
964.546	329.853
965.622	329.393
966.698	328.965
967.774	328.637
968.849	328.546
969.924	327.712
970.998	326.895
972.073	326.278
973.148	325.923
974.221	326.046
975.295	326.599
976.369	327.618
977.441	328.732
978.514	329.993
979.587	331.042
980.659	332.112
981.731	333.492
982.802	333.634
983.874	333.428
984.945	333.875
986.016	335.212
987.087	336.758
988.157	337.621
989.227	337
990.296	336.208
991.366	335.329
992.435	334.314
993.504	333.347
994.573	332.252
995.641	331.427
996.709	331.441
997.777	332.668
998.844	332.914
999.911	332.635
1000.98	331.983
1002.05	331.613
1003.11	331.175
1004.18	330.373
1005.24	328.716
1006.31	326.406
1007.37	323.545
1008.44	320.157
1009.5	315.025
1010.57	310.804
1011.63	307.145
1012.7	304.017
1013.76	301.021
1014.82	298.832
1015.89	299.428
1016.95	298.029
1018.01	296.912
1019.07	296.207
1020.13	295.896
1021.2	296.1
1022.26	296.986
1023.32	297.881
1024.38	298.579
1025.44	298.19
1026.5	297.45
1027.56	296.512
1028.62	295.538
1029.68	294.665
1030.74	293.552
1031.8	292.336
1032.85	290.975
1033.91	289.003
1034.97	287.002
1036.03	285.055
1037.09	283.951
1038.14	283.05
1039.2	283.045
1040.26	283.312
1041.31	283.77
1042.37	284.337
1043.42	284.804
1044.48	285.342
1045.53	285.62
1046.59	285.918
1047.64	286.116
1048.7	286.237
1049.75	286.358
1050.81	286.364
1051.86	285.281
1052.91	283.646
1053.97	281.821
1055.02	280.147
1056.07	278.737
1057.12	277.568
1058.17	276.876
1059.23	276.461
1060.28	276.385
1061.33	276.52
1062.38	276.741
1063.43	277.364
1064.48	278.696
1065.53	280.053
1066.58	281.521
1067.63	282.664
1068.68	283.56
1069.72	284.076
1070.77	284.129
1071.82	283.676
1072.87	282.648
1073.92	281.209
1074.96	279.475
1076.01	277.466
1077.06	275.613
1078.1	273.173
1079.15	270.629
1080.2	268.095
1081.24	265.684
1082.29	263.41
1083.33	261.446
1084.38	259.743
1085.42	258.326
1086.47	257.193
1087.51	256.378
1088.55	256.031
1089.6	255.936
1090.64	256.07
1091.68	256.353
1092.73	256.216
1093.77	255.581
1094.81	255.037
1095.85	254.616
1096.89	254.663
1097.93	254.761
1098.98	255.26
1100.02	256.16
1101.06	257.017
1102.1	257.756
1103.14	257.926
1104.18	257.87
1105.21	257.28
1106.25	256.193
1107.29	254.263
1108.33	253.877
1109.37	253.7
1110.41	253.489
1111.44	253.446
1112.48	253.422
1113.52	253.681
1114.56	254.02
1115.59	254.555
1116.63	255.101
1117.66	255.582
1118.7	255.912
1119.73	256.032
1120.77	255.601
1121.8	254.835
1122.84	254.02
1123.87	253.122
1124.91	252.387
1125.94	251.652
1126.97	251.01
1128.01	250.501
1129.04	250.203
1130.07	250.145
1131.11	250.607
1132.14	251.578
1133.17	252.627
1134.2	254.681
1135.23	256.994
1136.26	259.371
1137.29	261.34
1138.32	263.051
1139.35	264.551
1140.38	265.66
1141.41	266.617
1142.44	267.316
1143.47	268.049
1144.5	268.911
1145.53	269.76
1146.56	269.605
1147.58	269.839
1148.61	271.305
1149.64	273.643
1150.67	276.421
1151.69	279.153
1152.72	281.903
1153.75	284.332
1154.77	287.051
1155.8	287.59
1156.82	288.431
1157.85	287.959
1158.87	285.392
1159.9	280.869
1160.92	273.827
1161.95	267.562
1162.97	261.275
1163.99	257.512
1165.02	253.272
1166.04	248.93
1167.06	244.484
1168.08	240.233
1169.11	236.781
1170.13	234.363
1171.15	233.333
1172.17	239.017
1173.19	239.888
1174.21	240.991
1175.23	242.165
1176.25	243.436
1177.27	244.732
1178.29	246.13
1179.31	247.324
1180.33	248.733
1181.35	250.343
1182.37	251.819
1183.39	252.752
1184.4	253.29
1185.42	253.266
1186.44	252.655
1187.46	251.476
1188.47	249.977
1189.49	248.127
1190.51	245.995
1191.52	243.987
1192.54	241.346
1193.55	238.765
1194.57	236.191
1195.58	233.757
1196.6	231.448
1197.61	229.741
1198.63	228.328
1199.64	227.176
1200.65	226.337
1201.67	225.812
1202.68	225.71
1203.69	225.984
1204.7	228.226
1205.72	228.982
1206.73	228.944
1207.74	228.346
1208.75	229.028
1209.76	227.431
1210.77	225.786
1211.78	224.172
1212.79	222.781
1213.8	223.146
1214.81	222.805
1215.82	224.213
1216.83	223.36
1217.84	222.568
1218.85	222.131
1219.86	221.709
1220.87	221.225
1221.87	219.887
1222.88	221.115
1223.89	222.715
1224.9	225.074
1225.9	231.899
1226.91	232.076
1227.92	231.301
1228.92	229.852
1229.93	227.658
1230.93	219.39
1231.94	214.846
1232.94	211.517
1233.95	208.759
1234.95	207.678
1235.95	207.019
1236.96	206.277
1237.96	205.607
1238.96	205.26
1239.97	204.946
1240.97	204.987
1241.97	204.615
1242.97	203.806
1243.98	202.83
1244.98	201.824
1245.98	200.859
1246.98	199.999
1247.98	199.219
1248.98	198.489
1249.98	197.91
1250.98	197.389
1251.98	196.959
1252.98	196.581
1253.98	196.314
1254.98	196.169
1255.98	196.209
1256.97	196.585
1257.97	196.947
1258.97	197.376
1259.97	197.747
1260.97	198.018
1261.96	198.119
1262.96	197.996
1263.95	197.793
1264.95	197.548
1265.95	197.24
1266.94	196.956
1267.94	196.601
1268.93	196.236
1269.93	195.823
1270.92	195.388
1271.92	194.777
1272.91	194.177
1273.9	193.499
1274.9	193.213
1275.89	193.113
1276.88	193.532
1277.87	193.721
1278.87	193.901
1279.86	193.48
1280.85	192.985
1281.84	192.429
1282.83	191.814
1283.82	191.294
1284.81	191.592
1285.81	192.056
1286.8	192.362
1287.79	192.24
1288.77	191.847
1289.76	191.148
1290.75	190.075
1291.74	188.976
1292.73	187.887
1293.72	187.108
1294.71	187.151
1295.69	187.296
1296.68	187.686
1297.67	188.032
1298.65	187.953
1299.64	188.408
1300.63	188.423
1301.61	188.267
1302.6	187.949
1303.58	187.521
1304.57	186.794
1305.55	185.971
1306.54	184.801
1307.52	183.519
1308.51	182.011
1309.49	180.324
1310.48	178.549
1311.46	176.673
1312.44	174.449
1313.42	172.327
1314.41	171.46
1315.39	171.257
1316.37	171.88
1317.35	173.363
1318.33	175.719
1319.32	178.708
1320.3	182.137
1321.28	185.661
1322.26	189.249
1323.24	192.807
1324.22	196.453
1325.2	199.557
1326.18	203.014
1327.15	204.611
1328.13	205.364
1329.11	200.365
1330.09	197.782
1331.07	194.151
1332.05	190.248
1333.02	185.915
1334	180.792
1334.98	175.571
1335.95	171.586
1336.93	168.979
1337.91	167.995
1338.88	170.909
1339.86	170.784
1340.83	172.888
1341.81	172.789
1342.78	172.832
1343.76	172.894
1344.73	170.802
1345.7	168.413
1346.68	169.967
1347.65	169.954
1348.62	169.894
1349.6	169.796
1350.57	169.579
1351.54	169.148
1352.51	168.649
1353.49	167.988
1354.46	167.197
1355.43	166.255
1356.4	165.165
1357.37	163.859
1358.34	162.549
1359.31	161.14
1360.28	159.746
1361.25	158.288
1362.22	156.821
1363.19	155.342
1364.16	154.209
1365.12	153.6
1366.09	153.132
1367.06	152.849
1368.03	152.663
1369	152.632
1369.96	152.585
1370.93	152.451
1371.9	152.456
1372.86	152.398
1373.83	152.273
1374.79	152.244
1375.76	152.163
1376.73	152.171
1377.69	152.182
1378.66	152.242
1379.62	152.385
1380.58	152.571
1381.55	152.845
1382.51	153.19
1383.48	153.619
1384.44	154.105
1385.4	154.732
1386.36	155.572
1387.33	156.608
1388.29	157.619
1389.25	158.495
1390.21	159.218
1391.17	159.126
1392.13	158.873
1393.09	158.161
1394.06	156.55
1395.01	154.839
1395.97	153.114
1396.93	151.401
1397.89	150.115
1398.85	148.942
1399.81	147.939
1400.77	147.047
1401.73	146.25
1402.69	145.639
1403.64	145.095
1404.6	144.779
1405.56	144.56
1406.52	143.679
1407.47	142.928
1408.43	142.838
1409.39	142.995
1410.34	143.373
1411.3	143.71
1412.25	143.968
1413.21	142.912
1414.16	141.812
1415.12	140.893
1416.07	140.203
1417.03	139.719
1417.98	139.336
1418.93	139.53
1419.89	139.976
1420.84	140.537
1421.79	141.046
1422.74	141.831
1423.7	141.844
1424.65	141.386
1425.6	141.795
1426.55	142.733
1427.5	143.672
1428.45	143.292
1429.4	142.748
1430.35	142.147
1431.3	141.496
1432.25	141.123
1433.2	141.012
1434.15	141.339
1435.1	142.438
1436.05	143.673
1437	144.749
1437.95	145.61
1438.89	146.096
1439.84	146.635
1440.79	146.27
1441.74	145.698
1442.68	144.928
1443.63	144.053
1444.58	143.071
1445.52	142.094
1446.47	141.02
1447.41	140.008
1448.36	139.278
1449.3	138.322
1450.25	137.471
1451.19	136.468
1452.14	135.537
1453.08	134.41
1454.03	133.368
1454.97	132.546
1455.91	132.04
1456.85	132.483
1457.8	132.95
1458.74	133.555
1459.68	134.265
1460.62	134.651
1461.57	135.112
1462.51	135.374
1463.45	135.439
1464.39	134.206
1465.33	133.843
1466.27	133.309
1467.21	132.359
1468.15	130.181
1469.09	128.765
1470.03	127.629
1470.97	126.866
1471.9	126.308
1472.84	126.683
1473.78	127.238
1474.72	127.847
1475.66	128.333
1476.59	128.845
1477.53	129.133
1478.47	129.275
1479.4	129.435
1480.34	129.527
1481.28	129.619
1482.21	129.737
1483.15	129.851
1484.08	130.013
1485.02	130.15
1485.95	130.35
1486.89	130.511
1487.82	130.863
1488.76	131.152
1489.69	131.845
1490.62	132.599
1491.56	132.495
1492.49	131.763
1493.42	131.226
1494.35	131.059
1495.29	130.852
1496.22	129.867
1497.15	128.922
1498.08	127.614
1499.01	126.363
1499.94	125.37
1500.87	124.514
1501.8	124.174
1502.73	124.032
1503.66	124.079
1504.59	124.346
1505.52	124.721
1506.45	125.349
1507.38	125.983
1508.31	126.876
1509.23	127.875
1510.16	128.97
1511.09	130.227
1512.02	131.817
1512.94	133.688
1513.87	136.13
1514.8	139.973
1515.72	143.782
1516.65	147.882
1517.58	151.854
1518.5	156.407
1519.43	161.537
1520.35	166.733
1521.28	171.808
1522.2	174.82
1523.12	177.494
1524.05	180.207
1524.97	182.514
1525.9	184.314
1526.82	183.565
1527.74	181.683
1528.66	179.467
1529.59	176.703
1530.51	172.48
1531.43	168.837
1532.35	165.198
1533.27	161.79
1534.19	158.442
1535.11	155.261
1536.04	151.985
1536.96	151.005
1537.88	147.929
1538.8	144.246
1539.71	140.916
1540.63	137.871
1541.55	135.358
1542.47	133.105
1543.39	131.322
1544.31	129.79
1545.23	128.62
1546.14	127.812
1547.06	127.248
1547.98	126.836
1548.89	126.725
1549.81	126.707
1550.73	126.755
1551.64	126.683
1552.56	126.129
1553.47	125.311
1554.39	124.353
1555.31	122.678
1556.22	120.763
1557.13	118.767
1558.05	117.304
1558.96	116.02
1559.88	114.884
1560.79	113.934
1561.7	113.146
1562.62	112.244
1563.53	111.464
1564.44	110.618
1565.35	109.793
1566.27	109.189
1567.18	108.336
1568.09	107.912
1569	107.643
1569.91	107.394
1570.82	107.169
1571.73	106.484
1572.64	105.875
1573.55	105.152
1574.46	104.542
1575.37	103.951
1576.28	103.855
1577.19	104.416
1578.1	104.939
1579	105.227
1579.91	105.23
1580.82	105.255
1581.73	105.241
1582.63	105.22
1583.54	105.178
1584.45	105.045
1585.35	104.87
1586.26	104.59
1587.17	104.187
1588.07	103.106
1588.98	102.166
1589.88	101.444
1590.79	100.851
1591.69	100.52
1592.6	100.117
1593.5	99.9723
1594.4	99.841
1595.31	99.9894
1596.21	100.574
1597.11	101.49
1598.02	102.927
1598.92	103.847
1599.82	104.455
1600.72	105.022
1601.63	105.395
1602.53	105.491
1603.43	105.614
1604.33	105.717
1605.23	105.82
1606.13	105.952
1607.03	106.058
1607.93	106.124
1608.83	106.154
1609.73	106.132
1610.63	106.084
1611.53	105.961
1612.43	105.915
1613.32	105.848
1614.22	105.695
1615.12	104.837
1616.02	104.006
1616.92	103.427
1617.81	102.506
1618.71	101.786
1619.61	101.331
1620.5	101.213
1621.4	100.611
1622.29	99.8108
1623.19	99.2969
1624.08	98.9141
1624.98	98.5954
1625.87	98.3731
1626.77	98.2523
1627.66	98.1863
1628.56	98.1852
1629.45	98.3832
1630.34	98.7624
1631.24	99.2292
1632.13	99.6751
1632.84	99.7975
1633.77	99.8623
1634.7	99.3892
1635.63	99.1205
1636.56	98.7773
1637.49	98.2466
1638.42	96.5443
1639.34	95.352
1640.27	94.3782
1641.2	93.4791
1642.13	93.0853
1643.05	92.5352
1643.98	92.0064
1644.91	91.6669
1645.83	91.6735
1646.76	91.7073
1647.68	91.4775
1648.61	90.7606
1649.54	90.2079
1650.46	90.041
1651.39	90.0384
1652.31	90.2359
1653.23	90.5159
1654.16	91.0503
1655.08	91.5981
1656.01	92.4026
1656.93	93.3325
1657.85	94.2714
1658.78	95.1668
1659.7	96.1429
1660.62	96.8558
1661.54	95.3255
1662.47	94.9963
1663.39	94.8823
1664.31	94.8776
1665.23	94.8659
1666.15	94.94
1667.07	94.9516
1667.99	94.9449
1668.92	95.1007
1669.84	95.313
1670.76	95.6004
1671.68	95.9174
1672.6	95.5952
1673.52	95.445
1674.43	95.2774
1675.35	94.602
1676.27	93.8459
1677.19	93.0053
1678.11	92.1934
1679.03	91.3605
1679.95	90.778
1680.86	90.3738
1681.78	90.073
1682.7	89.8042
1683.61	89.5873
1684.53	89.4034
1685.45	89.1261
1686.36	88.9094
1687.28	88.6992
1688.2	88.4988
1689.11	88.2491
1690.03	88.0107
1690.94	87.7355
1691.86	87.3415
1692.77	87.1281
1693.69	86.9034
1694.6	86.6967
1695.52	86.4721
1696.43	86.2387
1697.34	85.9939
1698.26	85.6911
1699.17	85.3891
1700.08	84.9871
1700.99	84.7645
1701.91	84.0662
1702.82	83.3311
1703.73	82.1987
1704.64	81.3392
1705.55	80.5053
1706.47	79.8007
1707.38	79.1415
1708.29	78.5786
1709.2	78.354
1710.11	78.5625
1711.02	78.8527
1711.93	79.1557
1712.84	79.5005
1713.75	79.8163
1714.66	80.1517
1715.57	80.4527
1716.48	80.7245
1717.39	80.9788
1718.29	80.9499
1719.2	80.8656
1720.11	80.7732
1721.02	80.6717
1721.93	80.5325
1722.83	80.394
1723.74	80.2124
1724.65	80.0399
1725.55	79.8078
1726.46	79.7388
1727.37	79.2705
1728.27	78.8093
1729.18	78.3287
1730.08	77.8267
1730.99	77.3508
1731.89	76.8499
1732.8	76.3984
1733.7	75.8659
1734.61	75.4929
1735.51	75.1478
1736.42	74.9285
1737.32	75.1269
1738.22	75.1608
1739.13	75.2396
1740.03	75.3543
1740.93	75.5141
1741.83	75.6876
1742.74	76.0056
1743.64	76.3377
1744.54	76.6807
1745.44	77.0164
1746.34	77.3696
1747.24	77.6947
1748.15	78.0459
1749.05	78.3544
1749.95	78.028
1750.85	77.1192
1751.75	76.4233
1752.65	76.3495
1753.55	76.2296
1754.45	76.2685
1755.35	76.1589
1756.25	76.213
1757.14	76.1033
1758.04	75.8622
1758.94	75.6588
1759.84	75.6829
1760.74	76.1037
1761.63	76.212
1762.53	76.0357
1763.43	75.8624
1764.33	75.7216
1765.22	75.7627
1766.12	75.7066
1767.02	75.6648
1767.91	75.5869
1768.81	75.4925
1769.7	75.3981
1770.6	75.2741
1771.49	75.1595
1772.39	75.0304
1773.28	74.8817
1774.18	74.7323
1775.07	74.2802
1775.97	73.8171
1776.86	72.9591
1777.75	72.3768
1778.65	72.1367
1779.54	71.9081
1780.43	72.0038
1781.33	72.2051
1782.22	71.9517
1783.11	71.5075
1784	71.0393
1784.89	70.5574
1785.79	70.0584
1786.68	69.5867
1787.57	69.1088
1788.46	68.6736
1789.35	68.2701
1790.24	67.8936
1791.13	67.5515
1792.02	67.6346
1792.91	68.0021
1793.8	68.2375
1794.69	68.4937
1795.58	68.7431
1796.47	68.9697
1797.36	68.7872
1798.25	68.7392
1799.13	68.7566
