Acq. time (s)=	15
Accumulations=	2
Range (cm-¹)=	600...1800
Windows=	2
Autofocus=	Off
AutoExposure=	On
Spike filter=	Multiple accum.
Delay time (s)=	1
Binning=	1
Readout mode=	Signal
DeNoise=	Standard
ICS correction=	Off
Dark correction=	Off
Inst. Process=	Off
Instrument=	XploRA
Detector=	Syncerity
Objective=	x20LWD
Grating=	1200 gr/mm
Filter=	25%
Laser (nm)=	785 
Slit (µm)=	100 
Hole (µm)=	300 
Laser pol=	None
Raman pol=	None
Output=	Camera
StageXY=	Marzhauser
StageZ=	
X (µm)=	-7526.9
Y (µm)=	-2830
Project=	
Sample=	
Site=	
Title=	To5-T
Remark=	
Date=	14.10.2022 20:55
Acquired=	14.10.2022 20:55:27
600.787	292.968
601.956	291.671
603.126	293.862
604.294	295.589
605.463	298.257
606.631	300.471
607.8	303.4
608.967	304.813
610.135	308.229
611.302	311.455
612.468	314.577
613.635	316.948
614.802	321.215
615.968	323.965
617.133	326.173
618.299	327.872
619.464	328.771
620.629	330.115
621.793	331.207
622.958	332.087
624.121	334.93
625.285	334.726
626.448	334.102
627.612	333.267
628.774	333.045
629.937	333.469
631.099	333.714
632.261	333.229
633.423	332.8
634.584	333.263
635.745	333.428
636.906	333.726
638.066	333.678
639.227	333.564
640.386	333.044
641.546	332.388
642.705	331.58
643.864	331.295
645.023	330.018
646.181	328.732
647.339	328.407
648.497	328.572
649.655	327.997
650.812	328.128
651.969	329.473
653.125	330.789
654.282	331.059
655.438	331.787
656.593	333.123
657.75	334.382
658.905	335.688
660.059	337.058
661.214	338.182
662.368	339.465
663.522	340.623
664.676	341.024
665.83	341.095
666.983	340.551
668.136	339.177
669.288	338.872
670.441	338.947
671.592	338.695
672.744	338.71
673.895	339.095
675.046	339.58
676.197	339.413
677.348	335.274
678.498	335.808
679.648	337.95
680.798	339.631
681.947	341.782
683.096	344.24
684.245	346.548
685.394	348.212
686.542	349.134
687.69	349.886
688.837	350.137
689.984	351.515
691.132	352.522
692.278	353.514
693.425	353.919
694.571	353.736
695.717	353.175
696.863	352.546
698.008	352.11
699.152	351.499
700.298	350.979
701.442	350.469
702.586	349.816
703.73	348.925
704.873	348.028
706.017	346.725
707.16	345.735
708.302	345.081
709.445	344.351
710.586	344.263
711.729	344.612
712.87	345.82
714.012	346.255
715.152	345.876
716.293	345.027
717.433	343.877
718.573	343.253
719.713	343.8
720.853	345.086
721.991	345.167
723.131	344.905
724.269	344.894
725.408	345.548
726.545	345.493
727.683	345.22
728.821	345.24
729.958	345.728
731.095	346.307
732.231	346.771
733.368	346.347
734.503	346.014
735.639	346.517
736.775	347.182
737.91	347.738
739.045	349.829
740.179	351.409
741.313	353.231
742.447	354.122
743.581	354.04
744.714	352.839
745.847	351.843
746.98	350.456
748.113	348.209
749.245	345.872
750.377	344.198
751.509	342.111
752.64	340.158
753.771	337.712
754.902	335.176
756.033	333.265
757.163	331.252
758.293	329.589
759.423	327.79
760.551	326.888
761.681	327.059
762.81	326.54
763.938	325.9
765.066	324.977
766.194	324.855
767.321	324.022
768.449	322.293
769.576	320.142
770.703	318.294
771.83	316.672
772.955	315.439
774.081	313.822
775.207	312.482
776.332	310.733
777.457	309.204
778.582	307.882
779.707	306.77
780.831	307.422
781.954	306.69
783.078	305.789
784.201	304.882
785.324	304.049
786.447	303.666
787.569	303.057
788.691	302.155
789.813	301.361
790.935	300.867
792.056	300.662
793.177	300.974
794.297	300.869
795.418	300.988
796.539	299.858
797.658	299.594
798.777	299.601
799.897	299.479
801.016	298.903
802.134	298.709
803.253	298.266
804.371	297.315
805.489	296.733
806.606	295.83
807.723	295.562
808.84	294.67
809.957	293.654
811.073	293.112
812.19	292.887
813.305	292.749
814.421	293.564
815.536	293.416
816.651	292.966
817.766	289.837
818.88	288.201
819.994	287.167
821.108	286.054
822.221	285.417
823.335	285.447
824.448	286.274
825.56	287.295
826.673	288.417
827.784	289.477
828.897	290.295
830.008	291.07
831.119	290.796
832.23	290.237
833.341	290.535
834.451	289.907
835.561	289.016
836.671	288.019
837.78	287.06
838.89	285.456
839.998	284.428
841.108	283.786
842.216	283.163
843.324	282.056
844.431	281.091
845.539	280.915
846.646	281.045
847.753	281.424
848.859	281.526
849.966	281.706
851.071	281.953
852.178	281.947
853.283	281.573
854.388	281.129
855.494	280.17
856.598	279.068
857.703	278.721
858.806	278.181
859.91	278.176
861.014	277.35
862.116	275.914
863.22	274.569
864.322	273.332
865.425	272.363
866.527	272.515
867.628	272.873
868.73	273.231
869.831	273.364
870.932	272.569
872.032	271.777
873.133	270.575
874.233	269.267
875.333	267.322
876.432	265.476
877.532	263.351
878.631	261.706
879.729	260.477
880.828	259.164
881.926	257.142
883.023	255.254
884.121	253.501
885.218	253.612
886.315	254.765
887.412	256.773
888.508	257.527
889.604	257.729
890.699	258.464
891.795	258.938
892.89	259.189
893.985	258.937
895.08	258.299
896.174	257.366
897.268	256.099
898.362	257.451
899.456	257.01
900.549	256.916
901.642	255.951
902.734	255.079
903.827	254.209
904.919	254.271
906.011	252.846
907.102	251.763
908.193	251.643
909.284	251.34
910.375	251.433
911.465	252.492
912.555	254.351
913.645	255.899
914.734	257.564
915.824	259.244
916.913	259.624
918.001	259.564
919.09	253.885
920.177	252.207
921.266	250.66
922.353	248.699
923.44	246.793
924.527	244.774
925.614	243.311
926.7	241.325
927.786	239.17
928.873	237.584
929.958	237.198
931.043	235.775
932.128	234.507
933.213	233.993
934.297	232.838
935.381	232.086
936.465	230.612
937.549	229.416
938.632	228.461
939.715	227.866
940.798	227.415
941.881	227.667
942.962	228.461
944.044	229.029
945.125	229.562
946.207	230.32
947.288	231.239
948.368	231.271
949.449	230.884
950.529	230.496
951.61	229.942
952.689	229.015
953.769	228.184
954.847	227.837
955.926	226.905
957.004	226.898
958.082	226.58
959.16	226.541
960.238	226.21
961.316	226.327
962.392	226.982
963.469	228.378
964.546	229.093
965.622	230.31
966.698	230.968
967.774	231.396
968.849	231.474
969.924	231.122
970.998	230.748
972.073	230.982
973.148	230.325
974.221	229.665
975.295	230.211
976.369	231.157
977.441	231.48
978.514	232.102
979.587	231.974
980.659	232.452
981.731	232.761
982.802	233.476
983.874	234.669
984.945	235.539
986.016	236.316
987.087	237.513
988.157	237.775
989.227	238.259
990.296	239.164
991.366	238.946
992.435	237.676
993.504	236.156
994.573	234.422
995.641	232.471
996.709	230.577
997.777	229.807
998.844	229.215
999.911	229.963
1000.98	228.127
1002.05	226.134
1003.11	223.947
1004.18	222.044
1005.24	220.162
1006.31	217.891
1007.37	215.554
1008.44	213.581
1009.5	211.5
1010.57	209.967
1011.63	208.961
1012.7	207.65
1013.76	207.026
1014.82	206.217
1015.89	206.191
1016.95	206.181
1018.01	206.459
1019.07	205.955
1020.13	205.692
1021.2	205.792
1022.26	205.941
1023.32	205.796
1024.38	205.291
1025.44	204.82
1026.5	203.94
1027.56	202.24
1028.62	201.335
1029.68	200.786
1030.74	200.218
1031.8	199.976
1032.85	200.538
1033.91	200.855
1034.97	201.648
1036.03	202.332
1037.09	202.625
1038.14	202.068
1039.2	202.061
1040.26	201.815
1041.31	201.414
1042.37	201.397
1043.42	201.262
1044.48	200.929
1045.53	199.776
1046.59	198.686
1047.64	197.67
1048.7	196.423
1049.75	195.917
1050.81	195.567
1051.86	194.665
1052.91	194.08
1053.97	193.236
1055.02	192.371
1056.07	191.983
1057.12	191.742
1058.17	191.917
1059.23	192.066
1060.28	192.819
1061.33	193.898
1062.38	195.492
1063.43	197.45
1064.48	198.963
1065.53	199.887
1066.58	200.243
1067.63	201.101
1068.68	201.347
1069.72	201.904
1070.77	201.908
1071.82	200.899
1072.87	199.39
1073.92	197.866
1074.96	196.613
1076.01	195.43
1077.06	194.447
1078.1	193.459
1079.15	193.055
1080.2	192.156
1081.24	191.685
1082.29	191.554
1083.33	190.715
1084.38	190.318
1085.42	189.239
1086.47	188.7
1087.51	187.717
1088.55	186.348
1089.6	184.993
1090.64	183.157
1091.68	181.051
1092.73	179.442
1093.77	178.299
1094.81	177.766
1095.85	178.224
1096.89	178.68
1097.93	178.848
1098.98	178.857
1100.02	178.984
1101.06	178.906
1102.1	179.885
1103.14	181.176
1104.18	181.801
1105.21	182.952
1106.25	183.524
1107.29	184.521
1108.33	184.869
1109.37	185.386
1110.41	185.531
1111.44	185.721
1112.48	185.883
1113.52	185.63
1114.56	185.34
1115.59	185.023
1116.63	184.696
1117.66	184.447
1118.7	183.246
1119.73	181.442
1120.77	179.61
1121.8	177.634
1122.84	175.951
1123.87	173.455
1124.91	171.386
1125.94	169.554
1126.97	168.429
1128.01	172.452
1129.04	172.759
1130.07	173.592
1131.11	174.271
1132.14	175.63
1133.17	176.896
1134.2	178.548
1135.23	180.167
1136.26	182.291
1137.29	184.934
1138.32	186.587
1139.35	189.76
1140.38	191.136
1141.41	192.283
1142.44	193.324
1143.47	194.479
1144.5	192.972
1145.53	190.332
1146.56	188.648
1147.58	188.876
1148.61	190.574
1149.64	193.455
1150.67	196.879
1151.69	200.486
1152.72	203.593
1153.75	204.883
1154.77	205.245
1155.8	204.434
1156.82	203.102
1157.85	200.742
1158.87	197.829
1159.9	194.937
1160.92	191.206
1161.95	187.629
1162.97	183.767
1163.99	180.192
1165.02	176.964
1166.04	174.033
1167.06	171.948
1168.08	170.221
1169.11	169.406
1170.13	168.933
1171.15	169.706
1172.17	170.61
1173.19	171.867
1174.21	172.988
1175.23	174.754
1176.25	176.255
1177.27	177.731
1178.29	178.73
1179.31	179.724
1180.33	180.013
1181.35	179.309
1182.37	178.552
1183.39	178.343
1184.4	178.309
1185.42	178.297
1186.44	178.095
1187.46	178.394
1188.47	179.884
1189.49	178.451
1190.51	177.032
1191.52	175.535
1192.54	173.642
1193.55	171.301
1194.57	168.45
1195.58	166.666
1196.6	164.271
1197.61	161.953
1198.63	158.303
1199.64	158.091
1200.65	157.803
1201.67	158.493
1202.68	158.959
1203.69	158.78
1204.7	159.113
1205.72	159.897
1206.73	161.149
1207.74	162.79
1208.75	165.032
1209.76	161.976
1210.77	161.442
1211.78	161.57
1212.79	161.604
1213.8	162.342
1214.81	162.566
1215.82	162.944
1216.83	163.256
1217.84	163.419
1218.85	164.319
1219.86	165.418
1220.87	166.498
1221.87	167.319
1222.88	167.335
1223.89	167.111
1224.9	166.819
1225.9	166.419
1226.91	165.809
1227.92	163.972
1228.92	162.1
1229.93	160.223
1230.93	158.253
1231.94	156.56
1232.94	155.358
1233.95	153.784
1234.95	152.402
1235.95	151.06
1236.96	150.526
1237.96	149.716
1238.96	148.98
1239.97	148.364
1240.97	148.147
1241.97	147.386
1242.97	146.833
1243.98	145.784
1244.98	144.465
1245.98	142.836
1246.98	141.134
1247.98	139.436
1248.98	138.43
1249.98	137.654
1250.98	137.633
1251.98	138.349
1252.98	138.964
1253.98	139.023
1254.98	139.585
1255.98	140.115
1256.97	140.86
1257.97	142.01
1258.97	143.746
1259.97	145.432
1260.97	146.596
1261.96	147.375
1262.96	147.553
1263.95	147.335
1264.95	146.912
1265.95	146.516
1266.94	146.032
1267.94	145.775
1268.93	145.359
1269.93	144.949
1270.92	144.44
1271.92	143.653
1272.91	142.299
1273.9	140.808
1274.9	139.809
1275.89	139.128
1276.88	139.072
1277.87	138.66
1278.87	138.774
1279.86	138.948
1280.85	139.293
1281.84	140.388
1282.83	140.871
1283.82	141.62
1284.81	142.255
1285.81	142.798
1286.8	142.744
1287.79	141.961
1288.77	140.518
1289.76	139.187
1290.75	137.713
1291.74	136.336
1292.73	135.101
1293.72	134.215
1294.71	133.349
1295.69	132.7
1296.68	131.988
1297.67	131.155
1298.65	131.045
1299.64	131.535
1300.63	131.958
1301.61	132.514
1302.6	133.371
1303.58	134.131
1304.57	134.238
1305.55	134.452
1306.54	134.134
1307.52	133.327
1308.51	132.029
1309.49	130.956
1310.48	130.251
1311.46	129.789
1312.44	129.942
1313.42	129.963
1314.41	130.371
1315.39	130.692
1316.37	130.851
1317.35	131.408
1318.33	132.442
1319.32	133.901
1320.3	135.748
1321.28	137.65
1322.26	139.231
1323.24	140.405
1324.22	141.534
1325.2	142.451
1326.18	142.928
1327.15	142.826
1328.13	142.442
1329.11	141.394
1330.09	139.886
1331.07	138.051
1332.05	135.929
1333.02	133.876
1334	132.28
1334.98	130.8
1335.95	129.156
1336.93	127.818
1337.91	126.895
1338.88	126.175
1339.86	125.378
1340.83	125.118
1341.81	124.945
1342.78	124.803
1343.76	124.798
1344.73	125.055
1345.7	125.719
1346.68	125.683
1347.65	125.583
1348.62	125.738
1349.6	125.819
1350.57	125.366
1351.54	125.201
1352.51	124.37
1353.49	123.25
1354.46	122.237
1355.43	121.29
1356.4	120.405
1357.37	119.678
1358.34	118.965
1359.31	118.257
1360.28	117.602
1361.25	117.234
1362.22	116.692
1363.19	116.606
1364.16	116.28
1365.12	116.035
1366.09	115.762
1367.06	115.976
1368.03	116.108
1369	116.249
1369.96	116.443
1370.93	116.661
1371.9	116.914
1372.86	117.187
1373.83	117.476
1374.79	117.881
1375.76	118.123
1376.73	118.34
1377.69	118.485
1378.66	118.592
1379.62	118.64
1380.58	118.524
1381.55	118.418
1382.51	118.31
1383.48	118.221
1384.44	118.065
1385.4	117.906
1386.36	117.726
1387.33	117.535
1388.29	117.314
1389.25	116.6
1390.21	115.717
1391.17	114.693
1392.13	113.511
1393.09	112.725
1394.06	112.132
1395.01	111.953
1395.97	111.868
1396.93	111.565
1397.89	111.302
1398.85	111.037
1399.81	110.279
1400.77	110.151
1401.73	110.057
1402.69	110.139
1403.64	110.379
1404.6	110.273
1405.56	110.046
1406.52	109.944
1407.47	109.707
1408.43	109.129
1409.39	108.582
1410.34	108.023
1411.3	107.279
1412.25	106.984
1413.21	106.733
1414.16	107.006
1415.12	107.071
1416.07	107.131
1417.03	107.245
1417.98	107.379
1418.93	107.498
1419.89	107.222
1420.84	107.151
1421.79	107.102
1422.74	107.435
1423.7	107.165
1424.65	107.198
1425.6	107.127
1426.55	106.894
1427.5	106.943
1428.45	106.82
1429.4	106.968
1430.35	107.296
1431.3	107.472
1432.25	107.396
1433.2	107.342
1434.15	107.242
1435.1	107.155
1436.05	107.03
1437	106.907
1437.95	106.756
1438.89	106.598
1439.84	106.425
1440.79	106.22
1441.74	106.032
1442.68	105.808
1443.63	105.614
1444.58	105.379
1445.52	105.123
1446.47	104.879
1447.41	104.501
1448.36	103.564
1449.3	102.991
1450.25	102.928
1451.19	103.808
1452.14	104.618
1453.08	104.819
1454.03	104.679
1454.97	104.515
1455.91	104.224
1456.85	103.051
1457.8	102.087
1458.74	101.039
1459.68	99.992
1460.62	99.1901
1461.57	99.0819
1462.51	98.9479
1463.45	99.094
1464.39	98.4186
1465.33	96.5328
1466.27	95.0098
1467.21	94.5185
1468.15	93.8963
1469.09	95.0199
1470.03	95.9826
1470.97	98.2505
1471.9	100.547
1472.84	102.736
1473.78	97.5749
1474.72	96.8964
1475.66	96.2168
1476.59	95.107
1477.53	94.8181
1478.47	95.2387
1479.4	95.6266
1480.34	96.0344
1481.28	96.2776
1482.21	96.8307
1483.15	97.286
1484.08	97.8615
1485.02	98.4427
1485.95	99.0884
1486.89	99.836
1487.82	99.7915
1488.76	99.3449
1489.69	98.6526
1490.62	98.0631
1491.56	97.295
1492.49	96.7167
1493.42	96.2468
1494.35	96.1554
1495.29	96.0963
1496.22	96.3196
1497.15	96.3672
1498.08	96.9862
1499.01	96.8234
1499.94	96.5383
1500.87	96.3655
1501.8	96.3477
1502.73	96.3204
1503.66	96.3541
1504.59	96.501
1505.52	96.6054
1506.45	96.8924
1507.38	97.2849
1508.31	97.8528
1509.23	98.5757
1510.16	99.5624
1511.09	100.766
1512.02	102.22
1512.94	104.319
1513.87	106.576
1514.8	109.002
1515.72	111.811
1516.65	114.864
1517.58	118.173
1518.5	121.678
1519.43	125.229
1520.35	128.416
1521.28	130.631
1522.2	131.439
1523.12	132.213
1524.05	131.862
1524.97	131.816
1525.9	132.081
1526.82	132.449
1527.74	132.539
1528.66	132.28
1529.59	131.706
1530.51	130.832
1531.43	129.425
1532.35	125.428
1533.27	123.496
1534.19	122.228
1535.11	120.739
1536.04	117.825
1536.96	112.923
1537.88	107.874
1538.8	103.056
1539.71	98.6384
1540.63	95.5808
1541.55	95.4758
1542.47	95.589
1543.39	95.1387
1544.31	94.2659
1545.23	93.9533
1546.14	94.1543
1547.06	94.3436
1547.98	94.2965
1548.89	94.6559
1549.81	94.5119
1550.73	94.4627
1551.64	94.4758
1552.56	94.1426
1553.47	93.4039
1554.39	93.2963
1555.31	93.0875
1556.22	92.1669
1557.13	90.9227
1558.05	89.7562
1558.96	88.6271
1559.88	87.5848
1560.79	86.7404
1561.7	85.9483
1562.62	85.2453
1563.53	84.859
1564.44	84.5096
1565.35	84.297
1566.27	84.0812
1567.18	84.0631
1568.09	83.7421
1569	83.41
1569.91	83.1311
1570.82	82.8713
1571.73	82.6088
1572.64	82.2677
1573.55	81.9261
1574.46	81.3866
1575.37	80.864
1576.28	80.7065
1577.19	80.537
1578.1	80.3186
1579	80.0197
1579.91	79.6359
1580.82	79.6196
1581.73	79.5541
1582.63	79.0339
1583.54	78.0592
1584.45	77.6469
1585.35	77.7174
1586.26	78.1637
1587.17	78.5779
1588.07	78.9185
1588.98	79.0494
1589.88	79.2011
1590.79	79.3335
1591.69	79.3439
1592.6	79.3864
1593.5	79.3635
1594.4	79.4697
1595.31	79.67
1596.21	79.8838
1597.11	80.2814
1598.02	80.7579
1598.92	81.2242
1599.82	81.4858
1600.72	81.547
1601.63	81.5598
1602.53	81.5148
1603.43	81.5351
1604.33	81.8188
1605.23	82.2733
1606.13	82.9424
1607.03	83.5563
1607.93	83.6141
1608.83	83.4927
1609.73	83.329
1610.63	83.0968
1611.53	82.7522
1612.43	81.948
1613.32	80.5416
1614.22	78.435
1615.12	77.383
1616.02	77.1968
1616.92	78.5031
1617.81	79.0001
1618.71	78.7667
1619.61	78.5063
1620.5	78.0141
1621.4	77.536
1622.29	77.1423
1623.19	76.7205
1624.08	76.1099
1624.98	75.491
1625.87	75.0495
1626.77	74.6887
1627.66	74.3718
1628.56	74.1856
1629.45	74.1435
1630.34	74.2498
1631.24	74.5868
1632.13	75.1182
1632.84	75.6
1633.77	76.2393
1634.7	76.4083
1635.63	76.3302
1636.56	76.7018
1637.49	77.0814
1638.42	77.4709
1639.34	77.772
1640.27	78.0122
1641.2	78.2323
1642.13	77.7763
1643.05	76.9152
1643.98	76.0057
1644.91	75.0754
1645.83	74.2058
1646.76	73.4678
1647.68	72.8814
1648.61	72.3708
1649.54	72.0666
1650.46	71.815
1651.39	71.7222
1652.31	71.7434
1653.23	71.9206
1654.16	72.2491
1655.08	72.7833
1656.01	73.4631
1656.93	74.2815
1657.85	75.3323
1658.78	75.9961
1659.7	75.7
1660.62	75.4161
1661.54	75.1489
1662.47	74.901
1663.39	74.9522
1664.31	74.8459
1665.23	74.8317
1666.15	74.8051
1667.07	74.589
1667.99	74.1684
1668.92	73.7393
1669.84	73.3294
1670.76	72.891
1671.68	72.513
1672.6	72.1767
1673.52	71.8545
1674.43	71.6311
1675.35	71.3721
1676.27	71.2312
1677.19	71.0733
1678.11	71.005
1679.03	70.8896
1679.95	70.8138
1680.86	70.7701
1681.78	70.7645
1682.7	70.8161
1683.61	70.9322
1684.53	71.0629
1685.45	71.3891
1686.36	71.2459
1687.28	70.7897
1688.2	70.5419
1689.11	70.3426
1690.03	70.2362
1690.94	70.1675
1691.86	70.256
1692.77	70.4296
1693.69	70.6911
1694.6	69.8293
1695.52	68.708
1696.43	67.48
1697.34	66.2818
1698.26	65.1631
1699.17	64.2696
1700.08	63.7243
1700.99	63.531
1701.91	63.4474
1702.82	63.5537
1703.73	63.8518
1704.64	64.1589
1705.55	64.5654
1706.47	64.9885
1707.38	65.4216
1708.29	65.8728
1709.2	66.1012
1710.11	66.3338
1711.02	66.3242
1711.93	64.7956
1712.84	64.0002
1713.75	64.1249
1714.66	64.0997
1715.57	64.1345
1716.48	64.2303
1717.39	64.276
1718.29	64.1722
1719.2	64.0293
1720.11	63.9001
1721.02	63.7886
1721.93	63.7341
1722.83	63.6913
1723.74	63.7064
1724.65	63.7645
1725.55	63.8372
1726.46	63.9469
1727.37	64.0729
1728.27	64.2233
1729.18	64.3973
1730.08	64.6158
1730.99	64.791
1731.89	64.9149
1732.8	65.1816
1733.7	65.4703
1734.61	64.5554
1735.51	63.6562
1736.42	64.1654
1737.32	64.444
1738.22	64.7831
1739.13	65.0933
1740.03	65.311
1740.93	65.4182
1741.83	65.3018
1742.74	65.0811
1743.64	64.6958
1744.54	64.3602
1745.44	63.6121
1746.34	62.8618
1747.24	62.1004
1748.15	61.3587
1749.05	60.6746
1749.95	60.0657
1750.85	59.8127
1751.75	59.7378
1752.65	59.9104
1753.55	60.1073
1754.45	60.3037
1755.35	60.5382
1756.25	60.4175
1757.14	60.3561
1758.04	59.8612
1758.94	60.2956
1759.84	60.3237
1760.74	60.3302
1761.63	60.4075
1762.53	60.4414
1763.43	60.5575
1764.33	60.5923
1765.22	59.9374
1766.12	58.3954
1767.02	57.5967
1767.91	60.1125
1768.81	61.1872
1769.7	61.353
1770.6	61.2256
1771.49	61.1446
1772.39	61.0333
1773.28	60.8413
1774.18	60.512
1775.07	60.1364
1775.97	59.7245
1776.86	59.3065
1777.75	59.2667
1778.65	59.315
1779.54	59.8055
1780.43	60.2746
1781.33	60.7357
1782.22	61.1428
1783.11	61.5036
1784	61.8061
1784.89	62.0504
1785.79	62.0604
1786.68	60.673
1787.57	59.3734
1788.46	58.5674
1789.35	57.9158
1790.24	57.5261
1791.13	57.4094
1792.02	57.5336
1792.91	59.1466
1793.8	60.2188
1794.69	59.6702
1795.58	59.1304
1796.47	58.5627
1797.36	58.6523
1798.25	57.8407
1799.13	59.0361
