Acq. time (s)=	15
Accumulations=	2
Range (cm-¹)=	600...1800
Windows=	2
Autofocus=	Off
AutoExposure=	On
Spike filter=	Multiple accum.
Delay time (s)=	1
Binning=	1
Readout mode=	Signal
DeNoise=	Standard
ICS correction=	Off
Dark correction=	Off
Inst. Process=	Off
Instrument=	XploRA
Detector=	Syncerity
Objective=	x20LWD
Grating=	1200 gr/mm
Filter=	25%
Laser (nm)=	785 
Slit (µm)=	100 
Hole (µm)=	300 
Laser pol=	None
Raman pol=	None
Output=	Camera
StageXY=	Marzhauser
StageZ=	
X (µm)=	-4483.5
Y (µm)=	-6401.3
Project=	
Sample=	
Site=	
Title=	To3-T
Remark=	
Date=	14.10.2022 19:52
Acquired=	14.10.2022 19:52:57
600.787	836.088
601.956	838.034
603.126	841.125
604.294	847.05
605.463	852.346
606.631	859.71
607.8	865.303
608.967	871.478
610.135	878.01
611.302	884.19
612.468	889.49
613.635	895.661
614.802	901.888
615.968	908.563
617.133	915.565
618.299	922.295
619.464	928.016
620.629	933.06
621.793	937.552
622.958	940.315
624.121	943.278
625.285	944.85
626.448	946.549
627.612	948.17
628.774	948.681
629.937	948.496
631.099	947.326
632.261	945.828
633.423	943.62
634.584	940.233
635.745	937.877
636.906	936.675
638.066	935.067
639.227	935.138
640.386	935.146
641.546	933.823
642.705	932.695
643.864	931.236
645.023	930.58
646.181	928.398
647.339	926.954
648.497	924.8
649.655	923.593
650.812	922.775
651.969	923.84
653.125	924.136
654.282	923.91
655.438	923.986
656.593	924.341
657.75	925.459
658.905	928.36
660.059	931.216
661.214	932.684
662.368	934.933
663.522	936.561
664.676	936.748
665.83	936.21
666.983	934.917
668.136	933.007
669.288	929.549
670.441	928.555
671.592	927.361
672.744	926.977
673.895	926.005
675.046	926.443
676.197	927.81
677.348	928.961
678.498	929.001
679.648	928.496
680.798	928.895
681.947	929.889
683.096	929.882
684.245	929.443
685.394	929.634
686.542	928.833
687.69	927.541
688.837	926.438
689.984	925.998
691.132	924.856
692.278	923.26
693.425	924.333
694.571	926.212
695.717	930.954
696.863	934.112
698.008	944.407
699.152	940.51
700.298	935.83
701.442	931.094
702.586	925.391
703.73	917.336
704.873	911.695
706.017	907.722
707.16	905.374
708.302	905.676
709.445	904.118
710.586	901.214
711.729	899.754
712.87	898.569
714.012	897.211
715.152	893.422
716.293	891.108
717.433	888.434
718.573	885.619
719.713	883.683
720.853	881.851
721.991	880.157
723.131	878.767
724.269	874.131
725.408	871.906
726.545	871.072
727.683	871.512
728.821	873.974
729.958	876.891
731.095	880.491
732.231	884.645
733.368	889.711
734.503	895.503
735.639	899.914
736.775	903.435
737.91	906.766
739.045	909.567
740.179	910.838
741.313	911.211
742.447	909.043
743.581	908.177
744.714	906.086
745.847	901.819
746.98	894.643
748.113	891.94
749.245	889.059
750.377	887.485
751.509	885.97
752.64	883.265
753.771	879.74
754.902	875.623
756.033	873.029
757.163	868.563
758.293	863.377
759.423	857.171
760.551	846.767
761.681	842.023
762.81	836.624
763.938	836.587
765.066	832.481
766.194	828.555
767.321	824.238
768.449	820.137
769.576	816.318
770.703	814.126
771.83	812.034
772.955	811.337
774.081	811.466
775.207	811.036
776.332	809.786
777.457	809.871
778.582	807.872
779.707	804.748
780.831	802.912
781.954	801.09
783.078	798.604
784.201	796.064
785.324	793.996
786.447	791.967
787.569	789.739
788.691	786.898
789.813	785.101
790.935	784.139
792.056	783.484
793.177	782.952
794.297	784.006
795.418	784.938
796.539	784.577
797.658	784.093
798.777	782.832
799.897	779.037
801.016	775.975
802.134	773.148
803.253	768.601
804.371	764.751
805.489	759.992
806.606	756.245
807.723	753.45
808.84	749.672
809.957	745.997
811.073	742.863
812.19	739.601
813.305	737.141
814.421	735.226
815.536	734.444
816.651	733.102
817.766	731.962
818.88	731.014
819.994	731.213
821.108	731.272
822.221	732.672
823.335	733.352
824.448	733.876
825.56	733.213
826.673	732.797
827.784	731.029
828.897	728.999
830.008	727.635
831.119	725.549
832.23	724.57
833.341	723.802
834.451	722.97
835.561	722.812
836.671	721.334
837.78	721.902
838.89	722.721
839.998	724.423
841.108	724.746
842.216	725.328
843.324	726.981
844.431	728.86
845.539	729.426
846.646	728.4
847.753	726.847
848.859	724.854
849.966	721.781
851.071	718.621
852.178	715.98
853.283	713.276
854.388	709.438
855.494	705.547
856.598	701.914
857.703	698.484
858.806	694.922
859.91	691.204
861.014	688.529
862.116	685.73
863.22	683.335
864.322	681.734
865.425	680.506
866.527	680.367
867.628	679.286
868.73	678.448
869.831	678.621
870.932	677.97
872.032	676.438
873.133	675.062
874.233	673.816
875.333	671.855
876.432	669.456
877.532	666.674
878.631	665.445
879.729	663.716
880.828	662.49
881.926	661.576
883.023	660.741
884.121	659.762
885.218	659.158
886.315	659.708
887.412	659.286
888.508	658.537
889.604	657.139
890.699	656.711
891.795	655.911
892.89	654.239
893.985	651.674
895.08	649.724
896.174	646.402
897.268	643.529
898.362	641.915
899.456	640.904
900.549	641.363
901.642	643.879
902.734	646.802
903.827	649.526
904.919	650.369
906.011	651.087
907.102	652.72
908.193	655.456
909.284	658.188
910.375	659.043
911.465	659.726
912.555	660.156
913.645	660.177
914.734	658.818
915.824	655.908
916.913	653.872
918.001	650.897
919.09	648.84
920.177	645.93
921.266	642.95
922.353	639.286
923.44	634.556
924.527	630.257
925.614	625.854
926.7	621.127
927.786	613.822
928.873	609.547
929.958	606.681
931.043	604.046
932.128	601.697
933.213	599.985
934.297	599.44
935.381	599.132
936.465	594.806
937.549	598.142
938.632	598.763
939.715	599.735
940.798	599.712
941.881	598.834
942.962	597.614
944.044	595.656
945.125	593.662
946.207	591.214
947.288	588.943
948.368	588.104
949.449	587.796
950.529	587.305
951.61	587.278
952.689	586.732
953.769	585.882
954.847	584.163
955.926	582.728
957.004	581.108
958.082	581.441
959.16	581.335
960.238	581.37
961.316	581.455
962.392	580.387
963.469	579.824
964.546	578.086
965.622	575.605
966.698	573.474
967.774	572.351
968.849	570.846
969.924	570.682
970.998	570.218
972.073	569.477
973.148	568.166
974.221	567.049
975.295	566.333
976.369	565.775
977.441	564.249
978.514	564.09
979.587	564.764
980.659	564.948
981.731	566.865
982.802	569.629
983.874	572.303
984.945	575.701
986.016	578.8
987.087	582.411
988.157	583.877
989.227	584.335
990.296	586.326
991.366	589.446
992.435	589.629
993.504	588.975
994.573	587.403
995.641	584.54
996.709	581.911
997.777	578.562
998.844	574.116
999.911	571.343
1000.98	568.608
1002.05	565.855
1003.11	560.746
1004.18	557.148
1005.24	551.789
1006.31	547.325
1007.37	543.817
1008.44	540.373
1009.5	538.703
1010.57	538.324
1011.63	537.639
1012.7	535.017
1013.76	532.08
1014.82	529.321
1015.89	527.01
1016.95	524.494
1018.01	521.76
1019.07	519.022
1020.13	516.827
1021.2	515.122
1022.26	512.701
1023.32	509.107
1024.38	505.236
1025.44	501.829
1026.5	498.955
1027.56	496.709
1028.62	494.42
1029.68	491.902
1030.74	489.591
1031.8	488.25
1032.85	488.143
1033.91	489.085
1034.97	490.492
1036.03	492.675
1037.09	494.668
1038.14	495.817
1039.2	497.545
1040.26	498.462
1041.31	499.149
1042.37	499.833
1043.42	500.004
1044.48	499.311
1045.53	499.186
1046.59	498.472
1047.64	497.258
1048.7	495.312
1049.75	493.468
1050.81	491.063
1051.86	489.145
1052.91	488.205
1053.97	488.033
1055.02	486.062
1056.07	484.917
1057.12	483.853
1058.17	482.484
1059.23	479.773
1060.28	477.249
1061.33	475.94
1062.38	475.197
1063.43	475.422
1064.48	476.366
1065.53	478.528
1066.58	481.665
1067.63	481.586
1068.68	480.965
1069.72	479.829
1070.77	478.363
1071.82	476.821
1072.87	474.7
1073.92	472.574
1074.96	470.398
1076.01	467.969
1077.06	465.796
1078.1	463.622
1079.15	461.05
1080.2	458.596
1081.24	456.209
1082.29	453.726
1083.33	452.114
1084.38	450.358
1085.42	448.517
1086.47	447.413
1087.51	447.187
1088.55	446.529
1089.6	446.11
1090.64	445.64
1091.68	445.11
1092.73	445.119
1093.77	444.669
1094.81	444.516
1095.85	444.552
1096.89	444.774
1097.93	444.857
1098.98	445.066
1100.02	445.095
1101.06	445.477
1102.1	445.134
1103.14	445.296
1104.18	445.272
1105.21	444.941
1106.25	445.589
1107.29	447.676
1108.33	449.214
1109.37	450.616
1110.41	452.533
1111.44	451.939
1112.48	449.701
1113.52	446.884
1114.56	443.998
1115.59	441.699
1116.63	440.203
1117.66	439.334
1118.7	438.233
1119.73	437.307
1120.77	436.287
1121.8	433.682
1122.84	430.716
1123.87	428.367
1124.91	426.791
1125.94	424.829
1126.97	423.822
1128.01	423.71
1129.04	423.63
1130.07	424.54
1131.11	425.185
1132.14	424.606
1133.17	425.967
1134.2	427.655
1135.23	431.805
1136.26	435.893
1137.29	442.515
1138.32	452.831
1139.35	460.077
1140.38	466.557
1141.41	466.503
1142.44	461.22
1143.47	465.467
1144.5	465.05
1145.53	467.578
1146.56	466.945
1147.58	470.249
1148.61	474.467
1149.64	478.955
1150.67	482.349
1151.69	486.707
1152.72	492.861
1153.75	499.612
1154.77	503.944
1155.8	505.891
1156.82	504.766
1157.85	501.689
1158.87	497.882
1159.9	492.412
1160.92	485.434
1161.95	470.483
1162.97	460.52
1163.99	449.749
1165.02	444.027
1166.04	437.123
1167.06	430.531
1168.08	423.935
1169.11	417.828
1170.13	412.74
1171.15	409.875
1172.17	409.524
1173.19	413.222
1174.21	415.983
1175.23	418.757
1176.25	422.986
1177.27	426.84
1178.29	430.57
1179.31	432.562
1180.33	436.043
1181.35	439.45
1182.37	442.705
1183.39	446.911
1184.4	450.608
1185.42	451.039
1186.44	450.614
1187.46	448.604
1188.47	445.416
1189.49	441.941
1190.51	437.401
1191.52	433.146
1192.54	428.346
1193.55	423.513
1194.57	418.501
1195.58	412.605
1196.6	406.783
1197.61	401.236
1198.63	396.289
1199.64	392.225
1200.65	389.615
1201.67	386.954
1202.68	385.165
1203.69	384.901
1204.7	385.383
1205.72	386.081
1206.73	387.135
1207.74	388.396
1208.75	390.172
1209.76	392.112
1210.77	394.542
1211.78	397.247
1212.79	398.331
1213.8	399.902
1214.81	400.56
1215.82	400.766
1216.83	401.684
1217.84	402.311
1218.85	402.661
1219.86	402.489
1220.87	401.67
1221.87	401.576
1222.88	401.471
1223.89	401.403
1224.9	399.923
1225.9	398.306
1226.91	396.363
1227.92	393.436
1228.92	390.01
1229.93	386.576
1230.93	382.697
1231.94	378.504
1232.94	374.517
1233.95	370.898
1234.95	366.751
1235.95	362.761
1236.96	359.369
1237.96	356.602
1238.96	354.838
1239.97	352.939
1240.97	352.287
1241.97	351.773
1242.97	352.126
1243.98	351.747
1244.98	351.268
1245.98	349.875
1246.98	349.008
1247.98	346.198
1248.98	343.078
1249.98	340.932
1250.98	339.281
1251.98	337.997
1252.98	336.692
1253.98	335.938
1254.98	335.292
1255.98	335.405
1256.97	335.419
1257.97	336.151
1258.97	336.822
1259.97	337.577
1260.97	337.917
1261.96	337.439
1262.96	337.38
1263.95	337.461
1264.95	337.746
1265.95	337.847
1266.94	337.885
1267.94	336.925
1268.93	334.232
1269.93	331.622
1270.92	330.022
1271.92	328.546
1272.91	326.291
1273.9	325.328
1274.9	324.789
1275.89	324.619
1276.88	325.524
1277.87	326.258
1278.87	327.185
1279.86	329.311
1280.85	331.563
1281.84	335.84
1282.83	339.605
1283.82	340.741
1284.81	340.609
1285.81	340.247
1286.8	339.267
1287.79	338.396
1288.77	336.904
1289.76	334.64
1290.75	331.51
1291.74	328.757
1292.73	326.686
1293.72	325.386
1294.71	323.961
1295.69	323.013
1296.68	320.726
1297.67	318.239
1298.65	317.26
1299.64	316.913
1300.63	316.311
1301.61	316.158
1302.6	316.159
1303.58	316.1
1304.57	315.563
1305.55	315.429
1306.54	316.023
1307.52	315.645
1308.51	314.538
1309.49	313.328
1310.48	312.141
1311.46	311.227
1312.44	310.66
1313.42	310.597
1314.41	310.603
1315.39	307.415
1316.37	294.604
1317.35	297.733
1318.33	301.835
1319.32	307.976
1320.3	315.149
1321.28	323.434
1322.26	333.134
1323.24	339.436
1324.22	346.076
1325.2	353.814
1326.18	356.839
1327.15	357.98
1328.13	354.671
1329.11	349.516
1330.09	341.448
1331.07	334.124
1332.05	328.784
1333.02	322.463
1334	314.943
1334.98	308.303
1335.95	301.85
1336.93	299.919
1337.91	298.158
1338.88	296.222
1339.86	298.236
1340.83	298.213
1341.81	292.276
1342.78	291.059
1343.76	290.437
1344.73	289.643
1345.7	289.094
1346.68	287.696
1347.65	286.484
1348.62	285.584
1349.6	284.613
1350.57	284.651
1351.54	284.283
1352.51	283.502
1353.49	282.55
1354.46	280.904
1355.43	278.951
1356.4	277.565
1357.37	275.554
1358.34	273.331
1359.31	271.924
1360.28	271.084
1361.25	270.575
1362.22	269.741
1363.19	268.022
1364.16	266.824
1365.12	266.282
1366.09	266.43
1367.06	267.531
1368.03	269.016
1369	270.324
1369.96	271.795
1370.93	271.183
1371.9	270.807
1372.86	270.02
1373.83	269.433
1374.79	269.847
1375.76	270.375
1376.73	270.651
1377.69	270.741
1378.66	270.339
1379.62	270.196
1380.58	269.833
1381.55	269.57
1382.51	269.036
1383.48	268.566
1384.44	268.225
1385.4	267.553
1386.36	266.472
1387.33	265.312
1388.29	264.258
1389.25	263.422
1390.21	263.743
1391.17	263.716
1392.13	263.852
1393.09	263.721
1394.06	262.904
1395.01	261.403
1395.97	260.626
1396.93	259.273
1397.89	257.443
1398.85	253.769
1399.81	251.704
1400.77	251.068
1401.73	248.956
1402.69	247.319
1403.64	245.552
1404.6	243.617
1405.56	241.946
1406.52	240.791
1407.47	239.84
1408.43	238.929
1409.39	238.472
1410.34	237.418
1411.3	236.412
1412.25	236.009
1413.21	236.59
1414.16	237.374
1415.12	238.3
1416.07	239.137
1417.03	239.768
1417.98	240.574
1418.93	241.828
1419.89	243.287
1420.84	244.515
1421.79	246.227
1422.74	247.197
1423.7	248.337
1424.65	249.004
1425.6	249.53
1426.55	249.547
1427.5	249.943
1428.45	250.072
1429.4	250.649
1430.35	250.522
1431.3	251.161
1432.25	252.306
1433.2	253.031
1434.15	252.767
1435.1	254.498
1436.05	254.839
1437	254.885
1437.95	254.841
1438.89	255.171
1439.84	256.595
1440.79	256.947
1441.74	256.171
1442.68	254.359
1443.63	251.575
1444.58	248.866
1445.52	246.54
1446.47	244.264
1447.41	241.82
1448.36	241.746
1449.3	240.679
1450.25	239.542
1451.19	238.744
1452.14	238.015
1453.08	237.125
1454.03	234.257
1454.97	231.488
1455.91	229.414
1456.85	227.274
1457.8	225.8
1458.74	225.166
1459.68	224.905
1460.62	225.472
1461.57	226.785
1462.51	229.215
1463.45	229.262
1464.39	229.257
1465.33	228.514
1466.27	227.881
1467.21	227.551
1468.15	227.411
1469.09	227.105
1470.03	227.129
1470.97	226.693
1471.9	226.145
1472.84	225.447
1473.78	224.311
1474.72	224.151
1475.66	223.578
1476.59	223.658
1477.53	223.542
1478.47	223.697
1479.4	224.759
1480.34	225.703
1481.28	225.349
1482.21	226.143
1483.15	227.793
1484.08	229.417
1485.02	230.884
1485.95	232.269
1486.89	233.562
1487.82	234.483
1488.76	234.222
1489.69	233.51
1490.62	232.069
1491.56	230.272
1492.49	228.51
1493.42	226.82
1494.35	225.196
1495.29	224.435
1496.22	223.051
1497.15	221.699
1498.08	220.46
1499.01	219.432
1499.94	218.606
1500.87	218.099
1501.8	218.256
1502.73	218.288
1503.66	218.233
1504.59	218.59
1505.52	219.579
1506.45	220.985
1507.38	223.156
1508.31	225.353
1509.23	228.527
1510.16	230.69
1511.09	234.551
1512.02	240.487
1512.94	245.501
1513.87	252.087
1514.8	258.193
1515.72	264.557
1516.65	271.713
1517.58	278.902
1518.5	285.482
1519.43	291.573
1520.35	297.566
1521.28	303.746
1522.2	308.64
1523.12	312.934
1524.05	315.688
1524.97	316.899
1525.9	317.136
1526.82	317.576
1527.74	316.769
1528.66	316.093
1529.59	314.234
1530.51	309.919
1531.43	304.578
1532.35	298.519
1533.27	291.3
1534.19	284.406
1535.11	277.374
1536.04	270.546
1536.96	264.101
1537.88	257.331
1538.8	250.708
1539.71	246.347
1540.63	240.185
1541.55	235.265
1542.47	231.783
1543.39	228.962
1544.31	226.813
1545.23	225.044
1546.14	224.269
1547.06	224.365
1547.98	224.381
1548.89	225.578
1549.81	227.077
1550.73	228.462
1551.64	228.699
1552.56	228.622
1553.47	228.175
1554.39	226.831
1555.31	224.569
1556.22	221.466
1557.13	218.217
1558.05	214.52
1558.96	211.741
1559.88	208.638
1560.79	205.647
1561.7	202.408
1562.62	199.921
1563.53	197.756
1564.44	196.511
1565.35	195.096
1566.27	193.921
1567.18	192.87
1568.09	191.589
1569	190.244
1569.91	189.217
1570.82	188.226
1571.73	187.409
1572.64	186.586
1573.55	185.74
1574.46	185.018
1575.37	183.99
1576.28	183.404
1577.19	183.763
1578.1	185.035
1579	185.624
1579.91	185.446
1580.82	185.293
1581.73	184.344
1582.63	183.655
1583.54	183.471
1584.45	184.048
1585.35	184.54
1586.26	185.119
1587.17	185.612
1588.07	185.927
1588.98	185.775
1589.88	185.355
1590.79	184.902
1591.69	185.179
1592.6	185.101
1593.5	185.601
1594.4	185.986
1595.31	186.026
1596.21	186.437
1597.11	186.9
1598.02	187.729
1598.92	188.896
1599.82	190.235
1600.72	191.336
1601.63	192.093
1602.53	192.567
1603.43	192.576
1604.33	192.762
1605.23	192.602
1606.13	192.617
1607.03	192.866
1607.93	192.856
1608.83	192.531
1609.73	192.081
1610.63	190.987
1611.53	189.913
1612.43	188.719
1613.32	187.236
1614.22	185.685
1615.12	184.864
1616.02	184.042
1616.92	183.599
1617.81	183.526
1618.71	183.155
1619.61	182.062
1620.5	180.936
1621.4	179.86
1622.29	178.976
1623.19	178.502
1624.08	178.547
1624.98	178.847
1625.87	178.996
1626.77	178.952
1627.66	178.828
1628.56	178.732
1629.45	178.316
1630.34	177.587
1631.24	177.057
1632.13	176.63
1632.84	176.17
1633.77	175.671
1634.7	174.895
1635.63	174.551
1636.56	174.729
1637.49	174.205
1638.42	173.681
1639.34	173.467
1640.27	173.358
1641.2	173.383
1642.13	174.082
1643.05	174.513
1643.98	173.863
1644.91	173.244
1645.83	172.171
1646.76	171.223
1647.68	170.067
1648.61	168.62
1649.54	167.437
1650.46	166.177
1651.39	164.873
1652.31	163.663
1653.23	163.593
1654.16	163.327
1655.08	163.372
1656.01	163.817
1656.93	164.813
1657.85	165.838
1658.78	166.709
1659.7	168.387
1660.62	169.898
1661.54	170.56
1662.47	170.898
1663.39	171.488
1664.31	171.511
1665.23	171.613
1666.15	170.773
1667.07	169.642
1667.99	168.431
1668.92	166.617
1669.84	165.153
1670.76	164.84
1671.68	165.755
1672.6	166.449
1673.52	166.961
1674.43	167.113
1675.35	166.694
1676.27	165.602
1677.19	165.074
1678.11	164.36
1679.03	163.778
1679.95	163.656
1680.86	163.426
1681.78	163.51
1682.7	163.984
1683.61	164.374
1684.53	163.32
1685.45	162.296
1686.36	162.06
1687.28	161.14
1688.2	160.429
1689.11	159.951
1690.03	159.392
1690.94	159.22
1691.86	159.686
1692.77	159.744
1693.69	159.813
1694.6	159.734
1695.52	159.555
1696.43	157.931
1697.34	155.863
1698.26	154.003
1699.17	153.015
1700.08	151.861
1700.99	150.836
1701.91	149.858
1702.82	148.91
1703.73	147.907
1704.64	147.285
1705.55	147.175
1706.47	147.428
1707.38	146.954
1708.29	146.854
1709.2	147.582
1710.11	147.795
1711.02	147.713
1711.93	148.269
1712.84	149.37
1713.75	149.516
1714.66	149.44
1715.57	149.144
1716.48	149.094
1717.39	148.407
1718.29	147.425
1719.2	146.324
1720.11	145.745
1721.02	145.181
1721.93	145.16
1722.83	144.891
1723.74	144.401
1724.65	144.377
1725.55	144.161
1726.46	144.08
1727.37	144.096
1728.27	144.725
1729.18	145.426
1730.08	146.216
1730.99	147.067
1731.89	147.437
1732.8	146.106
1733.7	144.719
1734.61	142.799
1735.51	141.546
1736.42	140.8
1737.32	140.075
1738.22	139.382
1739.13	138.985
1740.03	138.906
1740.93	139.012
1741.83	139.574
1742.74	139.774
1743.64	139.874
1744.54	139.673
1745.44	139.456
1746.34	139.339
1747.24	138.585
1748.15	137.804
1749.05	137.27
1749.95	136.838
1750.85	136.711
1751.75	135.539
1752.65	134.769
1753.55	135.263
1754.45	136.021
1755.35	136.85
1756.25	137.943
1757.14	138.815
1758.04	139.005
1758.94	139.219
1759.84	138.486
1760.74	137.419
1761.63	136.939
1762.53	136.672
1763.43	136.516
1764.33	135.706
1765.22	134.465
1766.12	133.814
1767.02	133.659
1767.91	134.084
1768.81	134.289
1769.7	134.28
1770.6	134.379
1771.49	134.739
1772.39	135.031
1773.28	134.808
1774.18	133.8
1775.07	133.18
1775.97	133.408
1776.86	133.453
1777.75	133.601
1778.65	132.716
1779.54	131.568
1780.43	130.467
1781.33	129.409
1782.22	128.434
1783.11	127.542
1784	125.442
1784.89	127.138
1785.79	126.697
1786.68	126.16
1787.57	125.857
1788.46	125.383
1789.35	125.311
1790.24	125.159
1791.13	124.572
1792.02	124.366
1792.91	124.109
1793.8	123.683
1794.69	123.768
1795.58	123.401
1796.47	123.33
1797.36	123.011
1798.25	122.592
1799.13	121.87
