Acq. time (s)=	15
Accumulations=	2
Range (cm-¹)=	600...1800
Windows=	2
Autofocus=	Off
AutoExposure=	On
Spike filter=	Multiple accum.
Delay time (s)=	1
Binning=	1
Readout mode=	Signal
DeNoise=	Standard
ICS correction=	Off
Dark correction=	Off
Inst. Process=	Off
Instrument=	XploRA
Detector=	Syncerity
Objective=	x20LWD
Grating=	1200 gr/mm
Filter=	25%
Laser (nm)=	785 
Slit (µm)=	100 
Hole (µm)=	300 
Laser pol=	None
Raman pol=	None
Output=	Camera
StageXY=	Marzhauser
StageZ=	
X (µm)=	-2926.1
Y (µm)=	-4465.8
Project=	
Sample=	
Site=	
Title=	To3-T
Remark=	
Date=	14.10.2022 20:04
Acquired=	14.10.2022 20:04:26
600.787	211.36
601.956	223.882
603.126	223.815
604.294	224.34
605.463	223.451
606.631	223.173
607.8	223.884
608.967	224.763
610.135	226.177
611.302	227.869
612.468	229.67
613.635	231.479
614.802	233.645
615.968	235.684
617.133	237.682
618.299	239.59
619.464	241.37
620.629	242.903
621.793	244.236
622.958	245.32
624.121	246.129
625.285	246.626
626.448	246.765
627.612	246.666
628.774	246.323
629.937	245.862
631.099	245.173
632.261	244.31
633.423	243.432
634.584	242.598
635.745	241.754
636.906	241.469
638.066	241.603
639.227	241.882
640.386	242.999
641.546	244.295
642.705	244.8
643.864	245.17
645.023	245.242
646.181	245.023
647.339	244.688
648.497	244.258
649.655	243.749
650.812	243.315
651.969	243.083
653.125	243.056
654.282	243.735
655.438	244.919
656.593	246.329
657.75	248.087
658.905	249.701
660.059	250.745
661.214	250.833
662.368	250.65
663.522	250.312
664.676	249.609
665.83	247.014
666.983	246.356
668.136	247.153
669.288	248.16
670.441	248.735
671.592	249.394
672.744	250.124
673.895	250.922
675.046	252.157
676.197	253.402
677.348	254.44
678.498	255.287
679.648	255.594
680.798	255.527
681.947	255.203
683.096	254.7
684.245	254.102
685.394	253.519
686.542	253.627
687.69	253.655
688.837	254.097
689.984	254.99
691.132	257.415
692.278	257.935
693.425	258.353
694.571	259.479
695.717	260.434
696.863	261.103
698.008	260.72
699.152	260.107
700.298	259.456
701.442	258.727
702.586	257.946
703.73	257.292
704.873	256.762
706.017	256.205
707.16	255.74
708.302	255.374
709.445	255.146
710.586	255.045
711.729	255.094
712.87	255.307
714.012	255.887
715.152	256.82
716.293	257.748
717.433	258.861
718.573	260.042
719.713	260.262
720.853	258.274
721.991	257.767
723.131	257.434
724.269	257.261
725.408	256.638
726.545	255.994
727.683	255.366
728.821	254.751
729.958	254.312
731.095	254.177
732.231	254.147
733.368	254.336
734.503	254.889
735.639	255.503
736.775	256.224
737.91	256.843
739.045	256.761
740.179	256.378
741.313	257.357
742.447	258.532
743.581	259.571
744.714	260.485
745.847	261.051
746.98	261.471
748.113	261.678
749.245	261.68
750.377	261.416
751.509	261.022
752.64	260.528
753.771	259.75
754.902	258.766
756.033	257.316
757.163	254.578
758.293	251.545
759.423	248.89
760.551	246.621
761.681	243.695
762.81	242.591
763.938	242.262
765.066	242.017
766.194	241.731
767.321	241.296
768.449	240.938
769.576	240.463
770.703	240.085
771.83	239.616
772.955	239.287
774.081	238.959
775.207	238.568
776.332	238.381
777.457	237.622
778.582	236.643
779.707	235.241
780.831	233.994
781.954	232.659
783.078	231.467
784.201	230.249
785.324	229.129
786.447	228.062
787.569	227.088
788.691	226.159
789.813	225.315
790.935	224.549
792.056	223.87
793.177	223.358
794.297	222.9
795.418	222.681
796.539	222.603
797.658	222.61
798.777	222.839
799.897	223.154
801.016	223.61
802.134	224.134
803.253	224.931
804.371	224.373
805.489	222.528
806.606	219.911
807.723	217.383
808.84	215.199
809.957	213.501
811.073	212.319
812.19	211.792
813.305	212.147
814.421	212.408
815.536	211.827
816.651	211.656
817.766	212.182
818.88	213.146
819.994	214.207
821.108	215.928
822.221	217.622
823.335	219.217
824.448	220.436
825.56	221.359
826.673	221.601
827.784	221.62
828.897	221.354
830.008	220.997
831.119	220.012
832.23	218.882
833.341	217.636
834.451	208.081
835.561	214.919
836.671	214.09
837.78	213.736
838.89	213.303
839.998	212.962
841.108	212.63
842.216	212.318
843.324	212.015
844.431	211.691
845.539	211.223
846.646	210.819
847.753	210.376
848.859	210.054
849.966	209.544
851.071	209.025
852.178	208.481
853.283	207.946
854.388	207.41
855.494	206.909
856.598	206.336
857.703	205.768
858.806	205.193
859.91	204.62
861.014	204.058
862.116	203.495
863.22	202.943
864.322	202.406
865.425	201.915
866.527	201.416
867.628	200.86
868.73	200.509
869.831	200.151
870.932	199.852
872.032	199.529
873.133	199.22
874.233	198.918
875.333	198.606
876.432	198.31
877.532	197.972
878.631	197.63
879.729	197.223
880.828	196.756
881.926	196.237
883.023	195.389
884.121	194.368
885.218	193.282
886.315	192.166
887.412	191.222
888.508	190.314
889.604	189.586
890.699	189.54
891.795	189.265
892.89	189.079
893.985	188.928
895.08	188.837
896.174	188.793
897.268	188.762
898.362	188.776
899.456	188.725
900.549	188.73
901.642	188.612
902.734	188.365
903.827	188.192
904.919	187.872
906.011	187.436
907.102	187.024
908.193	186.707
909.284	186.618
910.375	187.457
911.465	188.338
912.555	189.213
913.645	190.295
914.734	191.414
915.824	192.383
916.913	193.243
918.001	193.87
919.09	192.297
920.177	194.294
921.266	194.068
922.353	193.585
923.44	192.8
924.527	191.811
925.614	190.221
926.7	188.264
927.786	186.136
928.873	183.978
929.958	181.983
931.043	180.103
932.128	178.529
933.213	177.238
934.297	176.562
935.381	176.633
936.465	177.057
937.549	177.681
938.632	177.666
939.715	177.362
940.798	178.956
941.881	178.653
942.962	178.221
944.044	177.293
945.125	176.119
946.207	174.307
947.288	172.067
948.368	169.863
949.449	167.824
950.529	166.395
951.61	165.282
952.689	164.636
953.769	164.549
954.847	165.007
955.926	167.058
957.004	167.849
958.082	169.166
959.16	167.848
960.238	166.873
961.316	166.333
962.392	166.108
963.469	166.053
964.546	167.893
965.622	168.277
966.698	168.367
967.774	167.928
968.849	167.392
969.924	165.542
970.998	165.099
972.073	166.052
973.148	168.324
974.221	168.885
975.295	168.926
976.369	168.385
977.441	168.01
978.514	167.723
979.587	167.626
980.659	167.587
981.731	167.743
982.802	168.123
983.874	168.482
984.945	168.974
986.016	169.289
987.087	169.948
988.157	168.93
989.227	167.61
990.296	166.4
991.366	164.46
992.435	164.487
993.504	166.772
994.573	170.341
995.641	173.795
996.709	177.688
997.777	178.626
998.844	176.033
999.911	173.974
1000.98	172.008
1002.05	170.368
1003.11	168.943
1004.18	167.645
1005.24	166.61
1006.31	165.335
1007.37	163.94
1008.44	162.458
1009.5	161.214
1010.57	160.413
1011.63	160.049
1012.7	159.864
1013.76	159.783
1014.82	159.761
1015.89	159.926
1016.95	160.04
1018.01	160.04
1019.07	159.845
1020.13	159.426
1021.2	158.588
1022.26	157.567
1023.32	156.226
1024.38	154.731
1025.44	152.826
1026.5	150.529
1027.56	148.252
1028.62	146.094
1029.68	144.77
1030.74	143.651
1031.8	143.381
1032.85	143.565
1033.91	144.076
1034.97	144.833
1036.03	145.605
1037.09	146.729
1038.14	148.377
1039.2	149.921
1040.26	151.195
1041.31	151.627
1042.37	151.688
1043.42	151.405
1044.48	150.805
1045.53	149.628
1046.59	148.231
1047.64	146.568
1048.7	144.9
1049.75	143.251
1050.81	141.967
1051.86	140.78
1052.91	139.693
1053.97	137.796
1055.02	136.842
1056.07	136.637
1057.12	136.896
1058.17	137.605
1059.23	138.695
1060.28	140.176
1061.33	141.655
1062.38	143.169
1063.43	144.456
1064.48	145.094
1065.53	145.365
1066.58	145.264
1067.63	144.693
1068.68	143.1
1069.72	141.845
1070.77	140.803
1071.82	139.915
1072.87	139.18
1073.92	138.599
1074.96	138.121
1076.01	137.782
1077.06	137.588
1078.1	137.502
1079.15	137.612
1080.2	137.86
1081.24	138.187
1082.29	138.593
1083.33	138.995
1084.38	139.363
1085.42	138.641
1086.47	137.758
1087.51	136.918
1088.55	136.116
1089.6	135.384
1090.64	134.784
1091.68	134.312
1092.73	133.973
1093.77	133.804
1094.81	133.759
1095.85	133.839
1096.89	133.949
1097.93	134.614
1098.98	135.266
1100.02	135.976
1101.06	136.638
1102.1	137.242
1103.14	137.348
1104.18	137.465
1105.21	137.446
1106.25	137.153
1107.29	136.748
1108.33	136.091
1109.37	135.018
1110.41	133.78
1111.44	132.523
1112.48	131.273
1113.52	130.115
1114.56	129.76
1115.59	129.287
1116.63	128.972
1117.66	128.71
1118.7	128.511
1119.73	128.206
1120.77	127.988
1121.8	127.568
1122.84	127.14
1123.87	126.971
1124.91	127.085
1125.94	127.7
1126.97	128.348
1128.01	128.876
1129.04	129.343
1130.07	128.564
1131.11	128.886
1132.14	129.343
1133.17	130.165
1134.2	131.241
1135.23	132.733
1136.26	134.375
1137.29	136.21
1138.32	138.151
1139.35	139.714
1140.38	140.826
1141.41	140.94
1142.44	140.145
1143.47	139.041
1144.5	137.793
1145.53	137.056
1146.56	136.675
1147.58	136.448
1148.61	136.667
1149.64	137.622
1150.67	139.203
1151.69	143.907
1152.72	145.651
1153.75	146.935
1154.77	148.238
1155.8	148.972
1156.82	151.012
1157.85	151.757
1158.87	150.653
1159.9	148.407
1160.92	145.323
1161.95	141.933
1162.97	138.102
1163.99	134.012
1165.02	130.169
1166.04	126.859
1167.06	124.231
1168.08	122.185
1169.11	120.931
1170.13	120.569
1171.15	120.956
1172.17	122.455
1173.19	123.584
1174.21	124.982
1175.23	126.145
1176.25	127.612
1177.27	129.06
1178.29	130.348
1179.31	131.436
1180.33	132.184
1181.35	132.73
1182.37	133.029
1183.39	133.038
1184.4	132.789
1185.42	132.223
1186.44	131.418
1187.46	130.284
1188.47	128.642
1189.49	126.651
1190.51	124.575
1191.52	122.478
1192.54	120.437
1193.55	119.089
1194.57	117.712
1195.58	116.518
1196.6	115.602
1197.61	114.871
1198.63	114.456
1199.64	114.138
1200.65	114.008
1201.67	114.004
1202.68	114.084
1203.69	114.274
1204.7	114.461
1205.72	114.692
1206.73	114.421
1207.74	114.217
1208.75	114.017
1209.76	113.83
1210.77	113.77
1211.78	113.92
1212.79	114.68
1213.8	115.325
1214.81	116.115
1215.82	116.581
1216.83	116.656
1217.84	116.696
1218.85	116.702
1219.86	116.694
1220.87	116.756
1221.87	116.817
1222.88	116.887
1223.89	116.976
1224.9	117.142
1225.9	117.321
1226.91	117.791
1227.92	117.564
1228.92	116.336
1229.93	115.166
1230.93	114.185
1231.94	113.026
1232.94	111.973
1233.95	111.067
1234.95	110.291
1235.95	109.776
1236.96	109.454
1237.96	109.37
1238.96	109.709
1239.97	110.461
1240.97	111.152
1241.97	111.839
1242.97	112.467
1243.98	112.294
1244.98	112.191
1245.98	112.014
1246.98	111.608
1247.98	111.001
1248.98	110.055
1249.98	109.041
1250.98	108.003
1251.98	106.966
1252.98	105.936
1253.98	104.942
1254.98	104.064
1255.98	103.228
1256.97	102.394
1257.97	101.661
1258.97	101.005
1259.97	100.46
1260.97	99.9828
1261.96	99.576
1262.96	99.2048
1263.95	98.9164
1264.95	98.6969
1265.95	98.5056
1266.94	98.4317
1267.94	98.4958
1268.93	98.5804
1269.93	98.8399
1270.92	99.1558
1271.92	99.5547
1272.91	100.093
1273.9	100.685
1274.9	101.349
1275.89	102.071
1276.88	102.797
1277.87	102.887
1278.87	102.644
1279.86	102.299
1280.85	102.213
1281.84	102.318
1282.83	102.799
1283.82	103.666
1284.81	105.031
1285.81	105.847
1286.8	105.208
1287.79	104.763
1288.77	103.977
1289.76	103.136
1290.75	102.282
1291.74	101.448
1292.73	100.607
1293.72	99.8476
1294.71	99.1509
1295.69	98.56
1296.68	98.0543
1297.67	97.663
1298.65	97.4165
1299.64	97.2708
1300.63	97.2287
1301.61	97.2022
1302.6	97.3343
1303.58	97.6381
1304.57	98.0987
1305.55	98.5213
1306.54	98.8821
1307.52	99.2614
1308.51	99.5473
1309.49	99.395
1310.48	99.0154
1311.46	98.188
1312.44	97.4734
1313.42	97.1239
1314.41	97.0932
1315.39	97.2169
1316.37	97.5181
1317.35	97.5173
1318.33	97.5994
1319.32	97.9505
1320.3	98.704
1321.28	99.7061
1322.26	101.083
1323.24	103.214
1324.22	105.257
1325.2	107.246
1326.18	108.038
1327.15	108.288
1328.13	108.197
1329.11	107.676
1330.09	106.834
1331.07	105.67
1332.05	104.23
1333.02	102.485
1334	100.607
1334.98	98.3303
1335.95	95.9513
1336.93	93.4995
1337.91	91.2237
1338.88	89.7285
1339.86	88.4996
1340.83	87.8852
1341.81	87.5221
1342.78	86.8613
1343.76	85.9325
1344.73	85.1699
1345.7	84.6646
1346.68	84.7974
1347.65	85.2426
1348.62	85.9167
1349.6	87.0399
1350.57	88.4057
1351.54	89.922
1352.51	90.6679
1353.49	93.245
1354.46	93.0852
1355.43	92.4432
1356.4	91.5048
1357.37	90.071
1358.34	88.1338
1359.31	84.7915
1360.28	83.4174
1361.25	82.4558
1362.22	81.9303
1363.19	81.648
1364.16	81.8578
1365.12	82.5814
1366.09	83.5728
1367.06	84.4833
1368.03	85.3597
1369	86.2799
1369.96	87.2009
1370.93	88.2873
1371.9	88.6761
1372.86	88.5548
1373.83	88.4297
1374.79	88.283
1375.76	88.164
1376.73	88.0085
1377.69	87.8981
1378.66	87.8579
1379.62	87.6655
1380.58	87.4822
1381.55	87.3324
1382.51	87.1557
1383.48	86.7251
1384.44	85.8937
1385.4	85.0453
1386.36	84.2818
1387.33	83.5669
1388.29	83.0627
1389.25	82.613
1390.21	82.3171
1391.17	82.1284
1392.13	81.9916
1393.09	82.0042
1394.06	82.0709
1395.01	82.189
1395.97	82.7631
1396.93	83.3703
1397.89	83.9683
1398.85	84.5463
1399.81	85.0436
1400.77	85.4
1401.73	85.1808
1402.69	83.9226
1403.64	82.8176
1404.6	82.0081
1405.56	81.2103
1406.52	81.1058
1407.47	81.1322
1408.43	80.2631
1409.39	79.249
1410.34	78.2406
1411.3	77.2817
1412.25	76.5072
1413.21	75.7825
1414.16	75.1728
1415.12	74.7502
1416.07	74.4311
1417.03	74.2528
1417.98	74.2076
1418.93	74.2079
1419.89	74.4685
1420.84	74.8756
1421.79	75.3395
1422.74	75.8857
1423.7	76.5561
1424.65	77.2301
1425.6	77.9356
1426.55	78.6451
1427.5	79.3314
1428.45	80.0171
1429.4	80.3237
1430.35	80.62
1431.3	80.8778
1432.25	81.0303
1433.2	81.1327
1434.15	81.1894
1435.1	81.0807
1436.05	81.0087
1437	80.7388
1437.95	80.2422
1438.89	79.5291
1439.84	78.7749
1440.79	78.0251
1441.74	77.2226
1442.68	76.4751
1443.63	75.7471
1444.58	75.4833
1445.52	75.2534
1446.47	75.3535
1447.41	75.3678
1448.36	76.1236
1449.3	76.9395
1450.25	77.7103
1451.19	77.698
1452.14	75.7953
1453.08	72.9942
1454.03	76.4495
1454.97	78.9813
1455.91	80.4123
1456.85	80.3238
1457.8	80.1021
1458.74	79.7722
1459.68	79.2861
1460.62	78.6664
1461.57	77.9801
1462.51	77.1592
1463.45	76.2824
1464.39	75.3059
1465.33	74.3464
1466.27	73.2424
1467.21	72.1561
1468.15	71.0873
1469.09	70.4723
1470.03	70.0751
1470.97	70.1779
1471.9	70.6037
1472.84	70.9733
1473.78	71.3771
1474.72	71.7415
1475.66	72.0668
1476.59	72.3803
1477.53	72.6677
1478.47	72.9395
1479.4	73.2125
1480.34	73.4368
1481.28	73.6578
1482.21	73.6022
1483.15	73.3642
1484.08	73.2676
1485.02	73.5824
1485.95	73.9688
1486.89	74.3411
1487.82	74.5415
1488.76	74.7698
1489.69	74.84
1490.62	74.6698
1491.56	73.4442
1492.49	72.1436
1493.42	70.5608
1494.35	69.1018
1495.29	67.8725
1496.22	67.0484
1497.15	66.6369
1498.08	66.7534
1499.01	67.2919
1499.94	68.1343
1500.87	69.2855
1501.8	72.1454
1502.73	71.8844
1503.66	71.6429
1504.59	71.5371
1505.52	71.7972
1506.45	72.2526
1507.38	72.9599
1508.31	73.8064
1509.23	74.8321
1510.16	76.0295
1511.09	77.2847
1512.02	78.1935
1512.94	78.8301
1513.87	79.5368
1514.8	80.27
1515.72	81.074
1516.65	81.9087
1517.58	82.7675
1518.5	83.6667
1519.43	84.5697
1520.35	85.5057
1521.28	86.496
1522.2	87.4868
1523.12	88.3911
1524.05	89.804
1524.97	91.1951
1525.9	92.4679
1526.82	93.7369
1527.74	94.6773
1528.66	94.6961
1529.59	94.5382
1530.51	93.5706
1531.43	91.764
1532.35	88.9013
1533.27	87.0028
1534.19	85.6437
1535.11	84.5359
1536.04	83.7499
1536.96	81.8659
1537.88	79.5695
1538.8	76.8265
1539.71	73.6945
1540.63	72.2191
1541.55	71.6825
1542.47	70.1994
1543.39	68.9816
1544.31	68.0407
1545.23	67.3377
1546.14	66.9609
1547.06	67.1579
1547.98	67.3885
1548.89	67.6432
1549.81	67.9805
1550.73	68.3603
1551.64	68.7807
1552.56	68.8981
1553.47	68.1292
1554.39	67.1978
1555.31	66.367
1556.22	65.4893
1557.13	64.6912
1558.05	63.9529
1558.96	63.3639
1559.88	63.0518
1560.79	62.9288
1561.7	63.007
1562.62	62.3245
1563.53	61.942
1564.44	61.5902
1565.35	61.2515
1566.27	60.9304
1567.18	60.5702
1568.09	60.2752
1569	59.9814
1569.91	59.6454
1570.82	59.2503
1571.73	58.8413
1572.64	58.3952
1573.55	58.0264
1574.46	57.6662
1575.37	57.2058
1576.28	56.6961
1577.19	56.18
1578.1	55.7078
1579	55.4268
1579.91	55.5539
1580.82	55.8026
1581.73	56.2754
1582.63	56.36
1583.54	56.5066
1584.45	56.722
1585.35	56.9137
1586.26	56.8875
1587.17	56.5085
1588.07	56.1091
1588.98	55.8684
1589.88	55.7462
1590.79	55.6306
1591.69	55.4225
1592.6	55.4314
1593.5	55.4847
1594.4	55.5361
1595.31	55.5375
1596.21	55.5695
1597.11	55.7603
1598.02	56.078
1598.92	56.2336
1599.82	56.7209
1600.72	57.2099
1601.63	57.3672
1602.53	57.6545
1603.43	57.9859
1604.33	58.2649
1605.23	58.6849
1606.13	59.0934
1607.03	59.4213
1607.93	59.7611
1608.83	60.0186
1609.73	60.1235
1610.63	59.8082
1611.53	59.157
1612.43	58.4519
1613.32	57.7289
1614.22	57.0153
1615.12	56.3142
1616.02	55.7428
1616.92	55.2045
1617.81	54.757
1618.71	54.4587
1619.61	54.1701
1620.5	53.9907
1621.4	53.8996
1622.29	53.7883
1623.19	53.8291
1624.08	53.6166
1624.98	53.3189
1625.87	53.173
1626.77	53.1393
1627.66	53.0676
1628.56	52.9523
1629.45	52.972
1630.34	53.072
1631.24	53.1445
1632.13	53.4031
1632.84	53.592
1633.77	54.7244
1634.7	55.0475
1635.63	55.1673
1636.56	55.0471
1637.49	53.7312
1638.42	54.2548
1639.34	54.8567
1640.27	55.357
1641.2	55.6917
1642.13	55.9156
1643.05	55.9254
1643.98	53.3096
1644.91	52.4385
1645.83	52.2885
1646.76	51.9642
1647.68	51.833
1648.61	51.8502
1649.54	52.178
1650.46	52.7127
1651.39	53.2073
1652.31	53.7231
1653.23	54.5853
1654.16	54.4739
1655.08	54.3262
1656.01	54.1737
1656.93	54.0405
1657.85	53.901
1658.78	53.7851
1659.7	53.6615
1660.62	53.4802
1661.54	52.5229
1662.47	51.7855
1663.39	51.5333
1664.31	51.6417
1665.23	51.8053
1666.15	52.5652
1667.07	53.2397
1667.99	53.5553
1668.92	54.4714
1669.84	55.2056
1670.76	56.2311
1671.68	57.1014
1672.6	56.5387
1673.52	55.8701
1674.43	55.2046
1675.35	54.3653
1676.27	53.1842
1677.19	51.0882
1678.11	50.7313
1679.03	49.9646
1679.95	48.8705
1680.86	48.4437
1681.78	48.0238
1682.7	47.9792
1683.61	48.009
1684.53	48.8482
1685.45	49.5341
1686.36	50.0027
1687.28	50.2931
1688.2	50.3814
1689.11	50.1227
1690.03	49.904
1690.94	49.668
1691.86	49.4808
1692.77	49.2751
1693.69	49.1224
1694.6	48.9556
1695.52	48.8271
1696.43	48.696
1697.34	48.574
1698.26	48.4675
1699.17	48.4589
1700.08	48.308
1700.99	48.1115
1701.91	47.9434
1702.82	47.7279
1703.73	47.5393
1704.64	47.1944
1705.55	46.9332
1706.47	46.7182
1707.38	46.4779
1708.29	46.2512
1709.2	46.0441
1710.11	45.8142
1711.02	45.6473
1711.93	45.4923
1712.84	45.3749
1713.75	45.2743
1714.66	45.2068
1715.57	45.4542
1716.48	45.5732
1717.39	45.717
1718.29	45.9115
1719.2	46.1208
1720.11	46.3513
1721.02	46.3128
1721.93	45.6832
1722.83	45.5371
1723.74	45.7871
1724.65	45.7266
1725.55	45.701
1726.46	45.6038
1727.37	45.6837
1728.27	45.2698
1729.18	45.1158
1730.08	45.1564
1730.99	45.1259
1731.89	45.5883
1732.8	45.3897
1733.7	45.2515
1734.61	44.9777
1735.51	44.8849
1736.42	44.6533
1737.32	45.1025
1738.22	45.5686
1739.13	46.2147
1740.03	46.1778
1740.93	46.1433
1741.83	46.0857
1742.74	46.0254
1743.64	45.9482
1744.54	45.8617
1745.44	45.767
1746.34	45.6649
1747.24	45.5572
1748.15	45.4408
1749.05	45.3239
1749.95	45.1211
1750.85	44.0492
1751.75	43.2409
1752.65	42.8387
1753.55	42.571
1754.45	42.7182
1755.35	42.5011
1756.25	42.6441
1757.14	43.0903
1758.04	43.2068
1758.94	43.2231
1759.84	43.4885
1760.74	43.6495
1761.63	43.6722
1762.53	43.5846
1763.43	43.4712
1764.33	43.3794
1765.22	43.2368
1766.12	42.9362
1767.02	42.8794
1767.91	42.8091
1768.81	43.3135
1769.7	43.6783
1770.6	44.3567
1771.49	44.8869
1772.39	45.0288
1773.28	44.4861
1774.18	43.9164
1775.07	43.1756
1775.97	42.2162
1776.86	41.7102
1777.75	41.465
1778.65	40.865
1779.54	40.5484
1780.43	40.2925
1781.33	40.4455
1782.22	40.5545
1783.11	40.6944
1784	41.3551
1784.89	42.226
1785.79	42.4427
1786.68	42.3127
1787.57	42.2259
1788.46	42.1558
1789.35	42.1269
1790.24	42.117
1791.13	42.1286
1792.02	42.1671
1792.91	42.2104
1793.8	42.2917
1794.69	42.3647
1795.58	42.4837
1796.47	42.5858
1797.36	42.6875
1798.25	42.2362
1799.13	42.378
