Acq. time (s)=	15
Accumulations=	2
Range (cm-¹)=	600...1800
Windows=	2
Autofocus=	Off
AutoExposure=	On
Spike filter=	Multiple accum.
Delay time (s)=	1
Binning=	1
Readout mode=	Signal
DeNoise=	Standard
ICS correction=	Off
Dark correction=	Off
Inst. Process=	Off
Instrument=	XploRA
Detector=	Syncerity
Objective=	x20LWD
Grating=	1200 gr/mm
Filter=	25%
Laser (nm)=	785 
Slit (µm)=	100 
Hole (µm)=	300 
Laser pol=	None
Raman pol=	None
Output=	Camera
StageXY=	Marzhauser
StageZ=	
X (µm)=	-3515.5
Y (µm)=	-2131.3
Project=	
Sample=	
Site=	
Title=	To5-T
Remark=	
Date=	14.10.2022 21:04
Acquired=	14.10.2022 21:04:08
600.787	548.623
601.956	559.271
603.126	566.414
604.294	575.766
605.463	583.019
606.631	589.214
607.8	594.457
608.967	599.257
610.135	603.702
611.302	607.742
612.468	611.5
613.635	615.261
614.802	618.948
615.968	622.558
617.133	626.218
618.299	629.293
619.464	632.046
620.629	634.473
621.793	636.777
622.958	639.034
624.121	641.3
625.285	643.927
626.448	646.424
627.612	649.253
628.774	651.997
629.937	656.222
631.099	661.088
632.261	666.173
633.423	670.467
634.584	674.534
635.745	678.178
636.906	681.476
638.066	684.333
639.227	686.746
640.386	688.688
641.546	689.994
642.705	690.63
643.864	690.437
645.023	689.514
646.181	688.764
647.339	687.718
648.497	686.908
649.655	686.497
650.812	686.787
651.969	688.039
653.125	689.91
654.282	692.33
655.438	694.927
656.593	697.435
657.75	698.7
658.905	699.324
660.059	699.917
661.214	700.399
662.368	701.251
663.522	701.924
664.676	702.617
665.83	703.309
666.983	704.077
668.136	704.773
669.288	705.41
670.441	705.952
671.592	706.582
672.744	707.54
673.895	709.57
675.046	712.334
676.197	715.242
677.348	717.915
678.498	719.837
679.648	721.081
680.798	721.644
681.947	721.516
683.096	721.014
684.245	720.05
685.394	718.925
686.542	716.679
687.69	716.197
688.837	716.452
689.984	717.219
691.132	717.363
692.278	717.654
693.425	718.601
694.571	720.196
695.717	721.592
696.863	722.674
698.008	723.189
699.152	723.227
700.298	722.91
701.442	722.116
702.586	720.853
703.73	718.456
704.873	715.919
706.017	713.211
707.16	710.536
708.302	708.542
709.445	706.681
710.586	705.119
711.729	703.891
712.87	702.921
714.012	702.268
715.152	702.291
716.293	702.799
717.433	703.665
718.573	704.42
719.713	704.788
720.853	704.902
721.991	704.662
723.131	704.066
724.269	702.609
725.408	700.983
726.545	699.353
727.683	697.806
728.821	696.956
729.958	696.195
731.095	695.839
732.231	695.904
733.368	696.544
734.503	697.685
735.639	700.202
736.775	703.221
737.91	706.441
739.045	708.963
740.179	711.163
741.313	713.284
742.447	715.072
743.581	716.034
744.714	716.276
745.847	715.555
746.98	714.388
748.113	712.928
749.245	711.04
750.377	708.706
751.509	705.28
752.64	699.623
753.771	697.147
754.902	695.396
756.033	692.879
757.163	689.367
758.293	684.628
759.423	675.176
760.551	669.732
761.681	664.287
762.81	659.711
763.938	658.383
765.066	657.151
766.194	655.048
767.321	652.96
768.449	651.185
769.576	649.841
770.703	649.34
771.83	649.035
772.955	648.604
774.081	648.036
775.207	646.532
776.332	644.789
777.457	642.952
778.582	641.242
779.707	639.58
780.831	638.295
781.954	636.889
783.078	635.572
784.201	634.567
785.324	633.502
786.447	632.437
787.569	631.268
788.691	629.911
789.813	628.229
790.935	626.313
792.056	623.612
793.177	620.559
794.297	617.119
795.418	613.206
796.539	609.246
797.658	605.684
798.777	602.176
799.897	599.559
801.016	595.034
802.134	593.555
803.253	592.694
804.371	591.974
805.489	591.913
806.606	591.767
807.723	591.72
808.84	591.415
809.957	590.81
811.073	589.87
812.19	588.526
813.305	586.557
814.421	582.262
815.536	579.789
816.651	578.475
817.766	578.954
818.88	581.207
819.994	585.887
821.108	589.28
822.221	592.463
823.335	595.627
824.448	594.495
825.56	592.13
826.673	569.696
827.784	574.674
828.897	579.917
830.008	585.195
831.119	589.177
832.23	586.224
833.341	583.95
834.451	581.887
835.561	580.094
836.671	579.314
837.78	578.156
838.89	579.295
839.998	579.452
841.108	579.359
842.216	578.964
843.324	578.436
844.431	577.497
845.539	576.326
846.646	575.041
847.753	573.618
848.859	572.178
849.966	570.666
851.071	569.206
852.178	567.72
853.283	566.301
854.388	565.022
855.494	563.564
856.598	562.1
857.703	560.587
858.806	559.08
859.91	557.537
861.014	555.949
862.116	554.401
863.22	552.866
864.322	551.464
865.425	549.899
866.527	548.568
867.628	547.539
868.73	546.424
869.831	545.067
870.932	543.609
872.032	542.427
873.133	541.393
874.233	540.382
875.333	539.663
876.432	538.588
877.532	537.461
878.631	536.05
879.729	534.727
880.828	533.352
881.926	532.008
883.023	530.741
884.121	529.507
885.218	528.468
886.315	527.796
887.412	527.229
888.508	526.83
889.604	527.967
890.699	528.431
891.795	528.124
892.89	527.561
893.985	526.685
895.08	525.881
896.174	525.03
897.268	524.181
898.362	523.024
899.456	521.19
900.549	518.719
901.642	516.085
902.734	513.437
903.827	511.434
904.919	509.579
906.011	508.284
907.102	507.561
908.193	507.771
909.284	508.748
910.375	511.087
911.465	514.461
912.555	518.275
913.645	522.192
914.734	525.171
915.824	528.264
916.913	530.347
918.001	531.208
919.09	530.588
920.177	528.05
921.266	523.772
922.353	518.192
923.44	510.909
924.527	506.42
925.614	501.88
926.7	497.372
927.786	493.22
928.873	490.939
929.958	487.267
931.043	484.056
932.128	482.092
933.213	480.812
934.297	480.242
935.381	480.472
936.465	480.75
937.549	480.839
938.632	480.426
939.715	480.174
940.798	479.747
941.881	479.353
942.962	478.694
944.044	478.095
945.125	477.31
946.207	476.401
947.288	474.395
948.368	471.66
949.449	469.365
950.529	467.796
951.61	466.359
952.689	465.236
953.769	464.569
954.847	464.235
955.926	464.451
957.004	465.194
958.082	466.046
959.16	466.809
960.238	466.133
961.316	465.138
962.392	463.659
963.469	461.409
964.546	459.164
965.622	457.299
966.698	456.151
967.774	455.378
968.849	454.808
969.924	454.984
970.998	455.479
972.073	456.409
973.148	457.596
974.221	459.009
975.295	460.582
976.369	462.564
977.441	464.613
978.514	467.298
979.587	469.886
980.659	472.186
981.731	474.291
982.802	475.437
983.874	476.142
984.945	476.13
986.016	475.717
987.087	474.754
988.157	473.284
989.227	471.426
990.296	469.23
991.366	466.844
992.435	464.325
993.504	461.888
994.573	459.721
995.641	458.026
996.709	457.742
997.777	458.034
998.844	458.536
999.911	459.032
1000.98	459.142
1002.05	458.974
1003.11	458.344
1004.18	457.006
1005.24	450.88
1006.31	452.294
1007.37	448.003
1008.44	443.654
1009.5	439.203
1010.57	434.438
1011.63	429.267
1012.7	424.298
1013.76	419.556
1014.82	415.871
1015.89	413.08
1016.95	411.032
1018.01	409.652
1019.07	408.746
1020.13	408.122
1021.2	407.686
1022.26	407.916
1023.32	407.729
1024.38	405.915
1025.44	403.058
1026.5	400.841
1027.56	398.756
1028.62	397.659
1029.68	396.943
1030.74	396.1
1031.8	395.398
1032.85	394.791
1033.91	394.694
1034.97	395.156
1036.03	396.815
1037.09	398.515
1038.14	400.137
1039.2	401.459
1040.26	402.114
1041.31	402.36
1042.37	402.341
1043.42	401.979
1044.48	401.186
1045.53	400.007
1046.59	398.459
1047.64	396.697
1048.7	394.799
1049.75	392.592
1050.81	390.531
1051.86	388.879
1052.91	387.505
1053.97	386.415
1055.02	386.575
1056.07	387.021
1057.12	387.488
1058.17	387.937
1059.23	388.182
1060.28	388.328
1061.33	388.378
1062.38	388.308
1063.43	388.112
1064.48	387.79
1065.53	387.264
1066.58	386.683
1067.63	385.991
1068.68	385.157
1069.72	384.375
1070.77	383.19
1071.82	381.89
1072.87	380.492
1073.92	378.96
1074.96	377.353
1076.01	375.681
1077.06	373.966
1078.1	372.162
1079.15	370.761
1080.2	369.082
1081.24	367.283
1082.29	365.488
1083.33	363.768
1084.38	362.239
1085.42	361.26
1086.47	361.85
1087.51	362.827
1088.55	363.738
1089.6	363.904
1090.64	363.822
1091.68	363.506
1092.73	363.017
1093.77	362.391
1094.81	361.737
1095.85	360.672
1096.89	359.589
1097.93	358.524
1098.98	357.57
1100.02	356.773
1101.06	356.091
1102.1	356.052
1103.14	356.15
1104.18	357.034
1105.21	358.168
1106.25	359.265
1107.29	359.613
1108.33	359.787
1109.37	359.69
1110.41	359.312
1111.44	358.675
1112.48	357.805
1113.52	356.667
1114.56	355.128
1115.59	353.122
1116.63	351.05
1117.66	349.105
1118.7	347.832
1119.73	346.693
1120.77	345.805
1121.8	345.16
1122.84	344.71
1123.87	344.429
1124.91	344.337
1125.94	344.443
1126.97	344.708
1128.01	345.101
1129.04	345.752
1130.07	346.495
1131.11	347.309
1132.14	347.939
1133.17	348.52
1134.2	348.645
1135.23	349.89
1136.26	352.063
1137.29	355.244
1138.32	360.096
1139.35	362.585
1140.38	364.419
1141.41	365.215
1142.44	365.824
1143.47	366.544
1144.5	367.45
1145.53	368.977
1146.56	370.758
1147.58	372.854
1148.61	375.261
1149.64	377.723
1150.67	379.58
1151.69	382.229
1152.72	385.336
1153.75	387.811
1154.77	391.14
1155.8	392.676
1156.82	393.012
1157.85	391.969
1158.87	389.583
1159.9	385.15
1160.92	379.268
1161.95	373.212
1162.97	365.893
1163.99	358.461
1165.02	351.142
1166.04	344.655
1167.06	338.449
1168.08	333.211
1169.11	329.043
1170.13	326.124
1171.15	324.579
1172.17	324.883
1173.19	326.403
1174.21	328.84
1175.23	331.137
1176.25	334.489
1177.27	338.218
1178.29	341.772
1179.31	345.69
1180.33	349.049
1181.35	351.818
1182.37	353.755
1183.39	354.782
1184.4	355.053
1185.42	354.565
1186.44	353.322
1187.46	351.085
1188.47	348.161
1189.49	344.609
1190.51	340.542
1191.52	336.065
1192.54	332.237
1193.55	327.133
1194.57	322.215
1195.58	317.584
1196.6	313.471
1197.61	310.21
1198.63	307.376
1199.64	305.112
1200.65	303.383
1201.67	302.104
1202.68	301.543
1203.69	301.548
1204.7	302.074
1205.72	303.088
1206.73	304.48
1207.74	305.723
1208.75	308.165
1209.76	310.787
1210.77	313.416
1211.78	315.802
1212.79	317.653
1213.8	319.272
1214.81	320.575
1215.82	321.618
1216.83	322.335
1217.84	322.947
1218.85	322.808
1219.86	322.372
1220.87	321.607
1221.87	320.692
1222.88	319.573
1223.89	318.671
1224.9	318.334
1225.9	317.584
1226.91	316.675
1227.92	315.591
1228.92	314.147
1229.93	312.192
1230.93	310.177
1231.94	307.505
1232.94	304.583
1233.95	301.566
1234.95	298.517
1235.95	295.455
1236.96	292.755
1237.96	290.013
1238.96	287.434
1239.97	284.999
1240.97	282.72
1241.97	280.677
1242.97	278.794
1243.98	277.17
1244.98	275.697
1245.98	274.47
1246.98	273.503
1247.98	272.732
1248.98	272.295
1249.98	272.168
1250.98	272.33
1251.98	269.701
1252.98	270.472
1253.98	272.024
1254.98	274.229
1255.98	276.676
1256.97	279.037
1257.97	281.241
1258.97	282.822
1259.97	283.2
1260.97	283.068
1261.96	282.652
1262.96	280.925
1263.95	278.972
1264.95	276.12
1265.95	273.896
1266.94	272.038
1267.94	270.666
1268.93	269.476
1269.93	268.491
1270.92	267.716
1271.92	267.084
1272.91	266.762
1273.9	266.561
1274.9	266.674
1275.89	266.926
1276.88	267.085
1277.87	267.641
1278.87	268.19
1279.86	268.452
1280.85	268.552
1281.84	268.977
1282.83	269.851
1283.82	270.888
1284.81	271.934
1285.81	272.823
1286.8	273.48
1287.79	273.352
1288.77	272.861
1289.76	272.172
1290.75	271.249
1291.74	270.22
1292.73	269.06
1293.72	267.834
1294.71	266.371
1295.69	264.921
1296.68	263.474
1297.67	262.079
1298.65	260.8
1299.64	259.848
1300.63	259.699
1301.61	259.483
1302.6	259.221
1303.58	258.758
1304.57	257.719
1305.55	256.509
1306.54	255.102
1307.52	253.485
1308.51	251.718
1309.49	249.819
1310.48	247.803
1311.46	245.684
1312.44	243.679
1313.42	242.67
1314.41	241.435
1315.39	240.924
1316.37	241.195
1317.35	243.107
1318.33	245.915
1319.32	249.437
1320.3	253.439
1321.28	257.563
1322.26	262.378
1323.24	266.027
1324.22	268.953
1325.2	271.908
1326.18	274.465
1327.15	276.161
1328.13	276.599
1329.11	275.337
1330.09	272.934
1331.07	268.946
1332.05	264.21
1333.02	259.079
1334	254.464
1334.98	249.898
1335.95	245.303
1336.93	241.384
1337.91	238.262
1338.88	237.64
1339.86	234.71
1340.83	232.517
1341.81	231.955
1342.78	229.887
1343.76	228.112
1344.73	227.48
1345.7	227.91
1346.68	228.604
1347.65	229.354
1348.62	229.467
1349.6	229.137
1350.57	228.234
1351.54	226.954
1352.51	225.24
1353.49	224.46
1354.46	224.323
1355.43	224.404
1356.4	224.527
1357.37	225.033
1358.34	225.763
1359.31	225.734
1360.28	225.165
1361.25	223.781
1362.22	221.086
1363.19	220.419
1364.16	219.98
1365.12	219.612
1366.09	219.411
1367.06	219.378
1368.03	219.44
1369	218.992
1369.96	217.525
1370.93	216.077
1371.9	215.199
1372.86	215.28
1373.83	215.869
1374.79	217.463
1375.76	218.275
1376.73	219.956
1377.69	218.64
1378.66	217.564
1379.62	216.963
1380.58	216.987
1381.55	217.493
1382.51	218.322
1383.48	220.098
1384.44	221.961
1385.4	223.159
1386.36	223.987
1387.33	222.316
1388.29	222.432
1389.25	222.318
1390.21	221.778
1391.17	220.684
1392.13	218.956
1393.09	217.306
1394.06	216.434
1395.01	216.84
1395.97	216.146
1396.93	215.316
1397.89	214.246
1398.85	213.084
1399.81	211.846
1400.77	210.625
1401.73	209.367
1402.69	208.124
1403.64	207.066
1404.6	204.919
1405.56	203.721
1406.52	202.302
1407.47	201.538
1408.43	201.854
1409.39	199.997
1410.34	198.5
1411.3	197.365
1412.25	196.616
1413.21	196.148
1414.16	195.934
1415.12	195.917
1416.07	196.058
1417.03	196.463
1417.98	196.933
1418.93	197.466
1419.89	197.993
1420.84	198.472
1421.79	198.834
1422.74	199.093
1423.7	199.203
1424.65	199.318
1425.6	199.039
1426.55	198.411
1427.5	197.739
1428.45	197.073
1429.4	196.53
1430.35	196.138
1431.3	196.786
1432.25	197.216
1433.2	198.168
1434.15	199.193
1435.1	200.181
1436.05	201.106
1437	201.781
1437.95	202.381
1438.89	202.808
1439.84	203.283
1440.79	203.117
1441.74	202.742
1442.68	202.113
1443.63	201.485
1444.58	200.758
1445.52	199.979
1446.47	199.16
1447.41	198.287
1448.36	197.415
1449.3	196.577
1450.25	195.976
1451.19	195.363
1452.14	194.524
1453.08	193.705
1454.03	192.875
1454.97	192.089
1455.91	191.327
1456.85	190.6
1457.8	189.929
1458.74	189.281
1459.68	188.732
1460.62	188.114
1461.57	187.697
1462.51	187.662
1463.45	187.808
1464.39	187.922
1465.33	187.431
1466.27	186.896
1467.21	186.853
1468.15	187.141
1469.09	186.437
1470.03	185.951
1470.97	185.634
1471.9	185.212
1472.84	185.153
1473.78	184.635
1474.72	184.149
1475.66	183.816
1476.59	182.737
1477.53	181.815
1478.47	180.95
1479.4	180.299
1480.34	180.289
1481.28	180.096
1482.21	179.93
1483.15	179.49
1484.08	179.305
1485.02	179.187
1485.95	179.174
1486.89	179.172
1487.82	179.258
1488.76	179.384
1489.69	179.565
1490.62	179.788
1491.56	180.053
1492.49	180.345
1493.42	180.597
1494.35	180.915
1495.29	181.272
1496.22	181.699
1497.15	181.82
1498.08	181.503
1499.01	179.369
1499.94	177.542
1500.87	176.019
1501.8	175.339
1502.73	174.842
1503.66	174.943
1504.59	175.295
1505.52	176.116
1506.45	177.759
1507.38	179.62
1508.31	180.975
1509.23	182.221
1510.16	183.654
1511.09	185.493
1512.02	187.71
1512.94	190.7
1513.87	194.539
1514.8	198.756
1515.72	203.216
1516.65	207.96
1517.58	212.572
1518.5	217.345
1519.43	222.411
1520.35	227.38
1521.28	232.019
1522.2	236.037
1523.12	239.565
1524.05	242.322
1524.97	244.246
1525.9	245.271
1526.82	245.244
1527.74	244.13
1528.66	241.651
1529.59	238.24
1530.51	234.135
1531.43	229.973
1532.35	225.023
1533.27	219.913
1534.19	214.818
1535.11	210.08
1536.04	205.804
1536.96	201.658
1537.88	197.473
1538.8	192.806
1539.71	187.669
1540.63	183.725
1541.55	180.86
1542.47	180.613
1543.39	179.056
1544.31	177.951
1545.23	177.245
1546.14	176.822
1547.06	176.196
1547.98	176.259
1548.89	176.142
1549.81	176.079
1550.73	175.959
1551.64	175.787
1552.56	175.443
1553.47	174.403
1554.39	173.624
1555.31	172.611
1556.22	171.331
1557.13	170.013
1558.05	168.49
1558.96	167.133
1559.88	164.99
1560.79	162.8
1561.7	160.945
1562.62	159.382
1563.53	157.988
1564.44	157.199
1565.35	156.57
1566.27	156.016
1567.18	155.422
1568.09	154.422
1569	153.381
1569.91	151.989
1570.82	151.35
1571.73	150.731
1572.64	150.568
1573.55	150.648
1574.46	150.919
1575.37	151.227
1576.28	151.305
1577.19	150.814
1578.1	150.262
1579	149.73
1579.91	149.014
1580.82	148.368
1581.73	147.853
1582.63	147.42
1583.54	147.13
1584.45	146.774
1585.35	146.294
1586.26	145.665
1587.17	144.857
1588.07	144.727
1588.98	144.891
1589.88	145.58
1590.79	146.528
1591.69	147.731
1592.6	149
1593.5	150.147
1594.4	151.255
1595.31	150.899
1596.21	150.491
1597.11	150.508
1598.02	150.994
1598.92	151.619
1599.82	152.242
1600.72	152.973
1601.63	153.707
1602.53	154.458
1603.43	155.294
1604.33	156.293
1605.23	157.302
1606.13	158.461
1607.03	159.62
1607.93	160.628
1608.83	161.263
1609.73	161.304
1610.63	161.03
1611.53	160.079
1612.43	158.988
1613.32	157.642
1614.22	156.355
1615.12	155.224
1616.02	153.945
1616.92	152.711
1617.81	151.572
1618.71	150.494
1619.61	149.667
1620.5	149.136
1621.4	148.873
1622.29	148.768
1623.19	148.796
1624.08	148.93
1624.98	149.282
1625.87	149.437
1626.77	149.242
1627.66	148.929
1628.56	148.631
1629.45	148.328
1630.34	148.101
1631.24	147.897
1632.13	147.797
1632.84	147.693
1633.77	147.468
1634.7	147.255
1635.63	147.054
1636.56	146.874
1637.49	146.625
1638.42	146.474
1639.34	146.296
1640.27	146.17
1641.2	146.049
1642.13	145.938
1643.05	145.826
1643.98	145.727
1644.91	145.193
1645.83	144.376
1646.76	143.22
1647.68	142.886
1648.61	143.28
1649.54	143.241
1650.46	143.281
1651.39	143.212
1652.31	143.743
1653.23	144.152
1654.16	144.469
1655.08	144.338
1656.01	144.261
1656.93	144.116
1657.85	144.082
1658.78	144.139
1659.7	144.193
1660.62	144.182
1661.54	144.162
1662.47	144.082
1663.39	143.515
1664.31	142.126
1665.23	141.249
1666.15	140.749
1667.07	140.137
1667.99	139.785
1668.92	139.368
1669.84	138.203
1670.76	137.204
1671.68	137.237
1672.6	137.247
1673.52	137.474
1674.43	137.71
1675.35	137.93
1676.27	138.126
1677.19	138.294
1678.11	138.367
1679.03	138.371
1679.95	138.301
1680.86	138.094
1681.78	137.793
1682.7	137.326
1683.61	136.801
1684.53	136.016
1685.45	134.884
1686.36	133.588
1687.28	132.487
1688.2	132.343
1689.11	132.048
1690.03	131.423
1690.94	130.685
1691.86	129.412
1692.77	127.927
1693.69	126.529
1694.6	125.356
1695.52	125.095
1696.43	125.041
1697.34	125.706
1698.26	126.677
1699.17	127.686
1700.08	128.396
1700.99	128.736
1701.91	128.835
1702.82	128.334
1703.73	127.733
1704.64	127.328
1705.55	127.216
1706.47	126.941
1707.38	126.509
1708.29	125.652
1709.2	124.634
1710.11	123.704
1711.02	122.824
1711.93	122.214
1712.84	122.153
1713.75	122.484
1714.66	122.863
1715.57	123.241
1716.48	123.169
1717.39	122.56
1718.29	121.891
1719.2	121.305
1720.11	120.903
1721.02	120.787
1721.93	120.866
1722.83	121.034
1723.74	121.358
1724.65	121.794
1725.55	122.327
1726.46	122.894
1727.37	123.574
1728.27	124.263
1729.18	124.912
1730.08	124.975
1730.99	124.984
1731.89	125.216
1732.8	125.111
1733.7	124.662
1734.61	123.511
1735.51	122.59
1736.42	122.225
1737.32	121.921
1738.22	121.674
1739.13	121.033
1740.03	119.338
1740.93	118.291
1741.83	116.978
1742.74	114.488
1743.64	113.47
1744.54	113.217
1745.44	112.906
1746.34	114.647
1747.24	113.484
1748.15	112.648
1749.05	111.959
1749.95	111.101
1750.85	111.671
1751.75	112.184
1752.65	112.448
1753.55	112.97
1754.45	113.562
1755.35	114.599
1756.25	115.839
1757.14	116.269
1758.04	116.591
1758.94	116.67
1759.84	116.704
1760.74	116.955
1761.63	116.091
1762.53	115.241
1763.43	114.306
1764.33	113.599
1765.22	113.126
1766.12	113.058
1767.02	112.936
1767.91	112.623
1768.81	112.217
1769.7	112.209
1770.6	112.695
1771.49	112.522
1772.39	112.329
1773.28	112.018
1774.18	111.727
1775.07	111.43
1775.97	111.148
1776.86	110.884
1777.75	110.603
1778.65	110.392
1779.54	110.117
1780.43	109.897
1781.33	109.618
1782.22	109.364
1783.11	109.076
1784	108.797
1784.89	108.487
1785.79	108.162
1786.68	107.856
1787.57	107.578
1788.46	107.3
1789.35	107.025
1790.24	106.762
1791.13	106.493
1792.02	106.254
1792.91	105.993
1793.8	105.786
1794.69	105.54
1795.58	105.288
1796.47	105.04
1797.36	104.481
1798.25	104.108
1799.13	103.8
