Acq. time (s)=	15
Accumulations=	2
Range (cm-¹)=	600...1800
Windows=	2
Autofocus=	Off
AutoExposure=	On
Spike filter=	Multiple accum.
Delay time (s)=	1
Binning=	1
Readout mode=	Signal
DeNoise=	Standard
ICS correction=	Off
Dark correction=	Off
Inst. Process=	Off
Instrument=	XploRA
Detector=	Syncerity
Objective=	x20LWD
Grating=	1200 gr/mm
Filter=	25%
Laser (nm)=	785 
Slit (µm)=	100 
Hole (µm)=	300 
Laser pol=	None
Raman pol=	None
Output=	Camera
StageXY=	Marzhauser
StageZ=	
X (µm)=	-7953.2
Y (µm)=	-6074
Project=	
Sample=	
Site=	
Title=	To3-T
Remark=	
Date=	14.10.2022 19:44
Acquired=	14.10.2022 19:44:25
600.787	552.86
601.956	555.519
603.126	560.382
604.294	567.42
605.463	575.344
606.631	583.411
607.8	592.387
608.967	601.013
610.135	609.399
611.302	617.56
612.468	625.289
613.635	633.055
614.802	640.613
615.968	648.083
617.133	654.245
618.299	658.656
619.464	663.039
620.629	667.792
621.793	672.486
622.958	677.36
624.121	681.833
625.285	688.226
626.448	693.664
627.612	696.852
628.774	699.522
629.937	701.655
631.099	703.054
632.261	703.577
633.423	703.307
634.584	704.822
635.745	706.982
636.906	710.603
638.066	716.391
639.227	719.842
640.386	723.518
641.546	726.543
642.705	729.442
643.864	731.19
645.023	732.435
646.181	734.704
647.339	739.039
648.497	742.402
649.655	745.104
650.812	746.619
651.969	748.153
653.125	750.177
654.282	752.277
655.438	754.742
656.593	757.122
657.75	761.139
658.905	765.998
660.059	770.481
661.214	774.081
662.368	777.014
663.522	779.468
664.676	780.803
665.83	781.064
666.983	781.069
668.136	782.084
669.288	781.751
670.441	781.149
671.592	782.103
672.744	783.539
673.895	784.78
675.046	785.365
676.197	788.206
677.348	790.76
678.498	792.965
679.648	796.261
680.798	799.755
681.947	803.823
683.096	807.453
684.245	810.944
685.394	814.365
686.542	818.028
687.69	821.923
688.837	824.741
689.984	827.208
691.132	829.234
692.278	830.485
693.425	831.624
694.571	833.124
695.717	832.87
696.863	832.245
698.008	831.25
699.152	830.881
700.298	829.835
701.442	829.553
702.586	826.492
703.73	821.736
704.873	817.645
706.017	816.03
707.16	815.314
708.302	815.004
709.445	815.507
710.586	817.166
711.729	819.614
712.87	823.216
714.012	825.995
715.152	829.074
716.293	830.515
717.433	832.719
718.573	832.868
719.713	834.059
720.853	835.65
721.991	836.229
723.131	835.634
724.269	834.209
725.408	833.116
726.545	831.104
727.683	829.27
728.821	826.343
729.958	821.525
731.095	819.866
732.231	818.18
733.368	818.621
734.503	819.831
735.639	821.694
736.775	824.109
737.91	827.584
739.045	831.372
740.179	835.457
741.313	837.909
742.447	839.53
743.581	840.993
744.714	841.138
745.847	839.067
746.98	835.353
748.113	830.858
749.245	826.296
750.377	823.785
751.509	820.878
752.64	818.297
753.771	814.63
754.902	809.61
756.033	806.016
757.163	803.209
758.293	799.426
759.423	794.384
760.551	790.373
761.681	787.805
762.81	784.978
763.938	782.747
765.066	780.373
766.194	777.131
767.321	773.17
768.449	769.825
769.576	766.905
770.703	765.038
771.83	764.444
772.955	764.4
774.081	763.838
775.207	761.747
776.332	759.678
777.457	757.3
778.582	756.584
779.707	755.339
780.831	752.729
781.954	750.917
783.078	749.763
784.201	748.558
785.324	746.838
786.447	745.454
787.569	743.517
788.691	741.993
789.813	740.795
790.935	739.405
792.056	737.451
793.177	734.497
794.297	731.534
795.418	728.689
796.539	726.291
797.658	722.784
798.777	719.956
799.897	717.861
801.016	715.755
802.134	714.333
803.253	712.897
804.371	713.144
805.489	712.227
806.606	711.077
807.723	709.462
808.84	708.015
809.957	707.338
811.073	706.365
812.19	707.589
813.305	705.982
814.421	703.093
815.536	701.005
816.651	699.061
817.766	698.506
818.88	697.939
819.994	697.064
821.108	696.607
822.221	695.777
823.335	694.682
824.448	694.204
825.56	694.56
826.673	695.309
827.784	695.758
828.897	696.096
830.008	695.588
831.119	693.25
832.23	691.454
833.341	689.698
834.451	688.578
835.561	687.328
836.671	686.066
837.78	684.351
838.89	682.78
839.998	682.017
841.108	681.558
842.216	681.23
843.324	681.434
844.431	682.269
845.539	682.132
846.646	681.726
847.753	680.952
848.859	679.888
849.966	680.606
851.071	679.547
852.178	677.613
853.283	675.272
854.388	674.429
855.494	672.032
856.598	669.147
857.703	665.031
858.806	659.203
859.91	655.435
861.014	652.076
862.116	649.393
863.22	646.718
864.322	644.912
865.425	643.974
866.527	642.16
867.628	639.645
868.73	637.553
869.831	636.272
870.932	635.781
872.032	636.206
873.133	636.386
874.233	635.009
875.333	631.949
876.432	630.025
877.532	628.122
878.631	626.426
879.729	624.697
880.828	620.759
881.926	619.73
883.023	619.252
884.121	620.07
885.218	620.903
886.315	620.374
887.412	622.958
888.508	622.032
889.604	621.279
890.699	621.645
891.795	621.476
892.89	625.46
893.985	627.015
895.08	625.885
896.174	624.468
897.268	622.457
898.362	618.811
899.456	617.317
900.549	616.025
901.642	615.664
902.734	614.646
903.827	614.412
904.919	614.642
906.011	615.949
907.102	617.049
908.193	617.792
909.284	620.459
910.375	622.443
911.465	624.25
912.555	625.107
913.645	626.406
914.734	627.075
915.824	626.157
916.913	624.332
918.001	622.893
919.09	620.958
920.177	618.244
921.266	614.664
922.353	610.24
923.44	604.979
924.527	600.026
925.614	593.99
926.7	588.526
927.786	583.52
928.873	578.68
929.958	574.098
931.043	570.217
932.128	567.484
933.213	565.551
934.297	563.272
935.381	562.04
936.465	561.061
937.549	560.407
938.632	559.986
939.715	560.181
940.798	559.9
941.881	559.285
942.962	558.339
944.044	556.767
945.125	556.108
946.207	555.619
947.288	554.816
948.368	554.613
949.449	554.66
950.529	554.36
951.61	553.747
952.689	553.527
953.769	552.713
954.847	552.618
955.926	551.899
957.004	551.111
958.082	550.298
959.16	549.235
960.238	548.898
961.316	548.802
962.392	548.411
963.469	547.987
964.546	548.467
965.622	547.634
966.698	547.103
967.774	546.357
968.849	546.187
969.924	546.44
970.998	547.156
972.073	547.533
973.148	547.175
974.221	547.64
975.295	547.951
976.369	550.069
977.441	550.863
978.514	551.884
979.587	554.319
980.659	556.494
981.731	559.714
982.802	561.236
983.874	563.572
984.945	564.55
986.016	565.316
987.087	564.454
988.157	564.746
989.227	563.021
990.296	559.359
991.366	552.005
992.435	549.611
993.504	550.593
994.573	547.324
995.641	546.781
996.709	546.066
997.777	547.489
998.844	552.68
999.911	556.739
1000.98	556.527
1002.05	556.69
1003.11	554.948
1004.18	547.123
1005.24	542.123
1006.31	536.857
1007.37	531.25
1008.44	524.334
1009.5	514.5
1010.57	506.818
1011.63	501.876
1012.7	502.041
1013.76	502.501
1014.82	504.386
1015.89	505.518
1016.95	506.342
1018.01	505.664
1019.07	504.307
1020.13	502.836
1021.2	500.568
1022.26	493.196
1023.32	489.973
1024.38	487.244
1025.44	485.525
1026.5	483.962
1027.56	482.43
1028.62	481.555
1029.68	480.691
1030.74	479.692
1031.8	479.254
1032.85	480.376
1033.91	481.374
1034.97	482.274
1036.03	483.621
1037.09	485.133
1038.14	486.048
1039.2	487.081
1040.26	488.373
1041.31	489.824
1042.37	490.48
1043.42	489.824
1044.48	488.438
1045.53	486.847
1046.59	484.596
1047.64	482.403
1048.7	479.79
1049.75	476.867
1050.81	474.572
1051.86	471.51
1052.91	469.472
1053.97	467.577
1055.02	464.907
1056.07	463.538
1057.12	461.925
1058.17	459.579
1059.23	457.684
1060.28	456.888
1061.33	457.119
1062.38	457.114
1063.43	455.561
1064.48	455.052
1065.53	455.415
1066.58	456.572
1067.63	457.615
1068.68	458.689
1069.72	459.675
1070.77	460.434
1071.82	461.016
1072.87	460.695
1073.92	460.579
1074.96	459.522
1076.01	458.48
1077.06	456.653
1078.1	454.065
1079.15	451.083
1080.2	448.331
1081.24	446.72
1082.29	445.361
1083.33	445.07
1084.38	444.081
1085.42	444.193
1086.47	443.764
1087.51	443.03
1088.55	442.451
1089.6	442.403
1090.64	442.009
1091.68	440.81
1092.73	440.116
1093.77	439.456
1094.81	439.418
1095.85	438.68
1096.89	438.191
1097.93	437.671
1098.98	437.526
1100.02	437.432
1101.06	437.092
1102.1	437.705
1103.14	438.648
1104.18	439.496
1105.21	440.915
1106.25	442.868
1107.29	443.569
1108.33	443.27
1109.37	442.9
1110.41	442.319
1111.44	440.886
1112.48	439.088
1113.52	436.22
1114.56	433.526
1115.59	430.187
1116.63	426.202
1117.66	422.76
1118.7	419.452
1119.73	415.928
1120.77	412.926
1121.8	411.032
1122.84	410.079
1123.87	408.73
1124.91	407.792
1125.94	407.045
1126.97	406.073
1128.01	406.245
1129.04	407.389
1130.07	409.731
1131.11	412.078
1132.14	414.592
1133.17	417.013
1134.2	420.025
1135.23	422.385
1136.26	424.218
1137.29	427.415
1138.32	430.825
1139.35	434.752
1140.38	438.287
1141.41	441.516
1142.44	444.933
1143.47	445.814
1144.5	444.961
1145.53	444.295
1146.56	445.398
1147.58	446.761
1148.61	448.257
1149.64	450.389
1150.67	453.138
1151.69	457.392
1152.72	461.99
1153.75	466.213
1154.77	469.529
1155.8	471.677
1156.82	472.311
1157.85	469.811
1158.87	465.489
1159.9	457.199
1160.92	449.65
1161.95	442.233
1162.97	434.433
1163.99	426.378
1165.02	418.687
1166.04	411.557
1167.06	404.608
1168.08	400.079
1169.11	397.438
1170.13	396.571
1171.15	400.246
1172.17	400.288
1173.19	400.879
1174.21	401.814
1175.23	402.798
1176.25	403.945
1177.27	405.145
1178.29	407.374
1179.31	409.723
1180.33	411.953
1181.35	414.413
1182.37	416.979
1183.39	418.306
1184.4	419.446
1185.42	420.26
1186.44	420.659
1187.46	421.154
1188.47	421.318
1189.49	420.844
1190.51	416.731
1191.52	412.441
1192.54	408.231
1193.55	403.94
1194.57	399.922
1195.58	395.806
1196.6	393.158
1197.61	390.678
1198.63	389.318
1199.64	387.827
1200.65	385.868
1201.67	383.639
1202.68	382.359
1203.69	381.786
1204.7	382.142
1205.72	382.612
1206.73	382.267
1207.74	382.157
1208.75	382.152
1209.76	382.396
1210.77	382.73
1211.78	383.356
1212.79	384.047
1213.8	385.256
1214.81	385.884
1215.82	385.959
1216.83	385.946
1217.84	385.416
1218.85	385.585
1219.86	385.611
1220.87	385.326
1221.87	385.011
1222.88	383.773
1223.89	383.448
1224.9	383.238
1225.9	382.352
1226.91	379.673
1227.92	378.595
1228.92	379.436
1229.93	378.857
1230.93	377.728
1231.94	376.2
1232.94	374.759
1233.95	373.258
1234.95	366.642
1235.95	362.134
1236.96	359.242
1237.96	356.587
1238.96	354.367
1239.97	352.576
1240.97	350.775
1241.97	349.885
1242.97	349.277
1243.98	350.005
1244.98	349.613
1245.98	349.183
1246.98	348.931
1247.98	347.726
1248.98	345.351
1249.98	342.681
1250.98	340.552
1251.98	339.703
1252.98	338.808
1253.98	337.584
1254.98	334.892
1255.98	333.58
1256.97	333.003
1257.97	332.343
1258.97	332.422
1259.97	332.978
1260.97	333.969
1261.96	335.765
1262.96	336.964
1263.95	337.564
1264.95	337.097
1265.95	336.264
1266.94	334.643
1267.94	332.945
1268.93	331.514
1269.93	330.173
1270.92	327.544
1271.92	324.93
1272.91	324.379
1273.9	325.025
1274.9	325.109
1275.89	325.987
1276.88	326.606
1277.87	327.046
1278.87	327.892
1279.86	328.955
1280.85	330.191
1281.84	331.505
1282.83	332.682
1283.82	333.493
1284.81	334.2
1285.81	334.456
1286.8	334.277
1287.79	333.619
1288.77	332.625
1289.76	331.006
1290.75	328.415
1291.74	325.505
1292.73	321.51
1293.72	319.385
1294.71	316.972
1295.69	315.505
1296.68	314.325
1297.67	314.066
1298.65	314.416
1299.64	315.177
1300.63	316.279
1301.61	317.261
1302.6	318.473
1303.58	320.147
1304.57	321.678
1305.55	321.842
1306.54	319.709
1307.52	318.03
1308.51	316.431
1309.49	313.76
1310.48	311.154
1311.46	308.697
1312.44	306.064
1313.42	304.425
1314.41	301.647
1315.39	300.966
1316.37	302.191
1317.35	302.33
1318.33	304.915
1319.32	308.876
1320.3	313.425
1321.28	319.419
1322.26	324.759
1323.24	330.009
1324.22	334.492
1325.2	339.698
1326.18	342.834
1327.15	344.789
1328.13	344.454
1329.11	341.065
1330.09	336.527
1331.07	328.191
1332.05	322.72
1333.02	318.063
1334	312.906
1334.98	304.855
1335.95	296.518
1336.93	291.563
1337.91	294.493
1338.88	294.196
1339.86	293.114
1340.83	290.657
1341.81	291.519
1342.78	290.138
1343.76	288.887
1344.73	287.99
1345.7	287.43
1346.68	286.663
1347.65	283.291
1348.62	283.066
1349.6	283.117
1350.57	284.025
1351.54	285.081
1352.51	284.495
1353.49	283.835
1354.46	283.231
1355.43	282.641
1356.4	281.987
1357.37	281.312
1358.34	280.521
1359.31	279.63
1360.28	278.66
1361.25	275.16
1362.22	271.795
1363.19	270.152
1364.16	269.57
1365.12	268.793
1366.09	269.681
1367.06	272.598
1368.03	272.07
1369	271.379
1369.96	271.382
1370.93	270.082
1371.9	270.229
1372.86	270.491
1373.83	271.141
1374.79	272.522
1375.76	272.797
1376.73	272.535
1377.69	271.909
1378.66	271.15
1379.62	270.666
1380.58	269.913
1381.55	268.783
1382.51	267.378
1383.48	266.218
1384.44	264.634
1385.4	263.078
1386.36	262.295
1387.33	262.08
1388.29	262.562
1389.25	263.617
1390.21	263.927
1391.17	265.022
1392.13	265.546
1393.09	266.018
1394.06	265.787
1395.01	264.822
1395.97	263.331
1396.93	261.751
1397.89	260.676
1398.85	260.141
1399.81	259.385
1400.77	258.888
1401.73	258.615
1402.69	258.01
1403.64	257.343
1404.6	256.809
1405.56	256.327
1406.52	254.114
1407.47	251.65
1408.43	249.245
1409.39	246.925
1410.34	244.995
1411.3	243.775
1412.25	243.028
1413.21	243.469
1414.16	244.534
1415.12	245.966
1416.07	247.73
1417.03	249.009
1417.98	250.452
1418.93	251.288
1419.89	251.782
1420.84	252.518
1421.79	253.463
1422.74	254.197
1423.7	254.616
1424.65	254.928
1425.6	254.009
1426.55	254.106
1427.5	254.404
1428.45	254.613
1429.4	255.263
1430.35	255.895
1431.3	256.283
1432.25	257.115
1433.2	258.056
1434.15	258.575
1435.1	258.936
1436.05	259.128
1437	259.131
1437.95	258.94
1438.89	258.388
1439.84	257.626
1440.79	256.553
1441.74	255.165
1442.68	253.574
1443.63	251.682
1444.58	249.065
1445.52	246.654
1446.47	245.353
1447.41	244.39
1448.36	243.55
1449.3	241.549
1450.25	240.41
1451.19	239.295
1452.14	238.022
1453.08	237.14
1454.03	236.098
1454.97	234.995
1455.91	234.275
1456.85	234.268
1457.8	234.255
1458.74	233.668
1459.68	232.926
1460.62	232.344
1461.57	231.639
1462.51	230.716
1463.45	230.015
1464.39	229.372
1465.33	228.735
1466.27	228.728
1467.21	229.095
1468.15	230.536
1469.09	231.436
1470.03	232.477
1470.97	231.632
1471.9	230.518
1472.84	229.42
1473.78	228.762
1474.72	227.859
1475.66	227.087
1476.59	226.512
1477.53	226.08
1478.47	225.94
1479.4	226.137
1480.34	226.914
1481.28	228.323
1482.21	226.751
1483.15	224.699
1484.08	223
1485.02	222.378
1485.95	222.269
1486.89	222.448
1487.82	222.328
1488.76	223.157
1489.69	223.087
1490.62	223.595
1491.56	223.708
1492.49	223.739
1493.42	223.648
1494.35	223.293
1495.29	223.468
1496.22	222.678
1497.15	222.066
1498.08	221.875
1499.01	220.987
1499.94	220.412
1500.87	219.86
1501.8	219.477
1502.73	219.211
1503.66	219.071
1504.59	219.675
1505.52	220.651
1506.45	221.761
1507.38	223.418
1508.31	225.158
1509.23	227.888
1510.16	230.774
1511.09	232.5
1512.02	234.395
1512.94	236.924
1513.87	239.526
1514.8	242.444
1515.72	245.478
1516.65	249.161
1517.58	253.431
1518.5	258.628
1519.43	264.284
1520.35	270.133
1521.28	275.949
1522.2	281.001
1523.12	285.656
1524.05	289.702
1524.97	292.824
1525.9	294.58
1526.82	294.288
1527.74	290.773
1528.66	288.717
1529.59	286.619
1530.51	283.65
1531.43	280.562
1532.35	276.073
1533.27	270.337
1534.19	264.739
1535.11	259.42
1536.04	254.427
1536.96	249.843
1537.88	245.072
1538.8	240.281
1539.71	236.068
1540.63	232.306
1541.55	228.282
1542.47	224.541
1543.39	221.347
1544.31	218.813
1545.23	217.059
1546.14	215.976
1547.06	215.664
1547.98	214.987
1548.89	214.434
1549.81	214.138
1550.73	213.694
1551.64	212.728
1552.56	211.691
1553.47	210.557
1554.39	209.284
1555.31	207.915
1556.22	206.165
1557.13	204.475
1558.05	202.206
1558.96	200.091
1559.88	197.942
1560.79	195.922
1561.7	193.923
1562.62	192.252
1563.53	190.806
1564.44	189.434
1565.35	188.207
1566.27	186.644
1567.18	185.77
1568.09	184.905
1569	184.167
1569.91	183.378
1570.82	182.78
1571.73	181.727
1572.64	180.876
1573.55	180.971
1574.46	180.517
1575.37	180.359
1576.28	180.402
1577.19	179.888
1578.1	179.407
1579	179.421
1579.91	179.136
1580.82	178.803
1581.73	178.646
1582.63	178.433
1583.54	178.369
1584.45	178.473
1585.35	178.688
1586.26	178.718
1587.17	178.734
1588.07	179.259
1588.98	179.797
1589.88	180.394
1590.79	181.21
1591.69	182.078
1592.6	182.925
1593.5	183.624
1594.4	184.212
1595.31	184.881
1596.21	185.199
1597.11	185.141
1598.02	185.306
1598.92	185.477
1599.82	185.354
1600.72	184.747
1601.63	184.411
1602.53	184.122
1603.43	184.003
1604.33	184.054
1605.23	184.446
1606.13	185.138
1607.03	185.341
1607.93	184.992
1608.83	184.555
1609.73	184.33
1610.63	184.29
1611.53	183.981
1612.43	183.684
1613.32	183.673
1614.22	183.658
1615.12	183.088
1616.02	182.841
1616.92	182.299
1617.81	181.792
1618.71	180.874
1619.61	179.764
1620.5	178.699
1621.4	177.74
1622.29	177.179
1623.19	177.036
1624.08	177.516
1624.98	178.293
1625.87	178.821
1626.77	179.143
1627.66	179.457
1628.56	179.467
1629.45	179.298
1630.34	178.758
1631.24	177.762
1632.13	176.823
1632.84	176.563
1633.77	176.109
1634.7	175.867
1635.63	175.568
1636.56	174.684
1637.49	173.956
1638.42	172.732
1639.34	171.633
1640.27	169.666
1641.2	168.446
1642.13	167.92
1643.05	168.172
1643.98	168.64
1644.91	169.714
1645.83	171.343
1646.76	172.5
1647.68	174.102
1648.61	174.727
1649.54	174.239
1650.46	174.206
1651.39	174.249
1652.31	174.474
1653.23	175.144
1654.16	175.294
1655.08	173.971
1656.01	172.566
1656.93	171.305
1657.85	170.656
1658.78	170.143
1659.7	170.147
1660.62	169.793
1661.54	169.827
1662.47	170.043
1663.39	171.011
1664.31	171.826
1665.23	172.213
1666.15	172.362
1667.07	172.451
1667.99	172.184
1668.92	171.364
1669.84	170.287
1670.76	168.681
1671.68	167.36
1672.6	165.799
1673.52	164.978
1674.43	164.116
1675.35	163.575
1676.27	163.431
1677.19	163.369
1678.11	163.504
1679.03	163.242
1679.95	163.298
1680.86	164.009
1681.78	164.936
1682.7	165.421
1683.61	166.117
1684.53	166.46
1685.45	165.982
1686.36	165.04
1687.28	163.878
1688.2	162.557
1689.11	161.751
1690.03	160.641
1690.94	159.704
1691.86	158.906
1692.77	158.249
1693.69	156.571
1694.6	156.355
1695.52	156.29
1696.43	156.503
1697.34	156.911
1698.26	157.348
1699.17	157.949
1700.08	158.801
1700.99	159.313
1701.91	159.214
1702.82	159.067
1703.73	158.198
1704.64	157.298
1705.55	155.707
1706.47	154.417
1707.38	152.907
1708.29	151.239
1709.2	150.334
1710.11	150.063
1711.02	150.588
1711.93	150.693
1712.84	151.025
1713.75	151.137
1714.66	151.874
1715.57	152.083
1716.48	151.647
1717.39	151.271
1718.29	150.938
1719.2	150.668
1720.11	150.434
1721.02	150.292
1721.93	150.183
1722.83	149.233
1723.74	148.28
1724.65	147.795
1725.55	146.942
1726.46	146.157
1727.37	145.901
1728.27	145.874
1729.18	145.714
1730.08	144.867
1730.99	144.32
1731.89	144.115
1732.8	144.704
1733.7	144.75
1734.61	144.38
1735.51	144.236
1736.42	144.158
1737.32	144.34
1738.22	144.16
1739.13	144.076
1740.03	143.662
1740.93	143.87
1741.83	144.968
1742.74	145.608
1743.64	143.531
1744.54	141.861
1745.44	140.652
1746.34	139.986
1747.24	141.508
1748.15	142.319
1749.05	143.328
1749.95	144.161
1750.85	145.046
1751.75	145.448
1752.65	144.111
1753.55	142.677
1754.45	141.74
1755.35	140.608
1756.25	139.704
1757.14	138.996
1758.04	138.27
1758.94	137.708
1759.84	137.097
1760.74	136.302
1761.63	135.93
1762.53	136.009
1763.43	136.103
1764.33	136.497
1765.22	136.48
1766.12	137.059
1767.02	137.832
1767.91	138.331
1768.81	139.162
1769.7	139.514
1770.6	139.725
1771.49	139.999
1772.39	140.416
1773.28	140.781
1774.18	141.148
1775.07	141.324
1775.97	141.055
1776.86	140.234
1777.75	139.395
1778.65	138.351
1779.54	137.559
1780.43	136.094
1781.33	134.912
1782.22	134.249
1783.11	133.488
1784	133.319
1784.89	132.878
1785.79	132.665
1786.68	132.621
1787.57	132.295
1788.46	132.292
1789.35	132.104
1790.24	132.211
1791.13	132.463
1792.02	132.646
1792.91	132.496
1793.8	131.785
1794.69	131.124
1795.58	130.83
1796.47	130.575
1797.36	130.605
1798.25	129.976
1799.13	125.713
