Acq. time (s)=	15
Accumulations=	2
Range (cm-¹)=	600...1800
Windows=	2
Autofocus=	Off
AutoExposure=	On
Spike filter=	Multiple accum.
Delay time (s)=	1
Binning=	1
Readout mode=	Signal
DeNoise=	Standard
ICS correction=	Off
Dark correction=	Off
Inst. Process=	Off
Instrument=	XploRA
Detector=	Syncerity
Objective=	x20LWD
Grating=	1200 gr/mm
Filter=	25%
Laser (nm)=	785 
Slit (µm)=	100 
Hole (µm)=	300 
Laser pol=	None
Raman pol=	None
Output=	Camera
StageXY=	Marzhauser
StageZ=	
X (µm)=	-6190.9
Y (µm)=	-6685.6
Project=	
Sample=	
Site=	
Title=	To1-T
Remark=	
Date=	14.10.2022 18:18
Acquired=	14.10.2022 18:18:46
600.787	577.951
601.956	585.482
603.126	593.124
604.294	601.311
605.463	609.024
606.631	615.884
607.8	622.363
608.967	628.077
610.135	633.242
611.302	637.967
612.468	642.723
613.635	646.944
614.802	650.942
615.968	654.85
617.133	658.657
618.299	662.454
619.464	666.35
620.629	670.354
621.793	674.344
622.958	678.419
624.121	682.47
625.285	687.02
626.448	691.714
627.612	695.347
628.774	698.111
629.937	700.336
631.099	702.272
632.261	705.032
633.423	706.794
634.584	707.924
635.745	708.219
636.906	707.518
638.066	706.964
639.227	706.109
640.386	705.632
641.546	705.567
642.705	706.382
643.864	707.707
645.023	709.454
646.181	710.88
647.339	713.936
648.497	717.645
649.655	722.605
650.812	725.859
651.969	736.098
653.125	745.236
654.282	752.37
655.438	754.874
656.593	754.959
657.75	754.061
658.905	752.392
660.059	749.884
661.214	744.977
662.368	744.971
663.522	747.736
664.676	750.787
665.83	754.141
666.983	758.522
668.136	762.944
669.288	765.801
670.441	768.033
671.592	767.4
672.744	769.243
673.895	770.661
675.046	772.435
676.197	774.647
677.348	775.821
678.498	778.111
679.648	779.918
680.798	781.626
681.947	783.169
683.096	784.894
684.245	786.546
685.394	787.945
686.542	788.244
687.69	788.514
688.837	788.96
689.984	789.279
691.132	789.541
692.278	789.658
693.425	789.457
694.571	789.343
695.717	789.359
696.863	790.648
698.008	793.676
699.152	796.759
700.298	798.583
701.442	799.939
702.586	800.596
703.73	800.716
704.873	800.702
706.017	800.323
707.16	799.712
708.302	798.536
709.445	796.862
710.586	794.745
711.729	791.932
712.87	788.792
714.012	785.631
715.152	783.321
716.293	781.584
717.433	780.745
718.573	779.798
719.713	778.583
720.853	778.248
721.991	778.329
723.131	778.366
724.269	778.356
725.408	778.374
726.545	778.648
727.683	779.006
728.821	779.203
729.958	778.475
731.095	779.454
732.231	781.057
733.368	782.238
734.503	784.324
735.639	787.115
736.775	791.012
737.91	795.874
739.045	802.777
740.179	815.121
741.313	817.802
742.447	819.524
743.581	820.231
744.714	820.493
745.847	817.869
746.98	813.197
748.113	808.482
749.245	799.655
750.377	796.104
751.509	792.314
752.64	789.154
753.771	786.282
754.902	787.708
756.033	784.731
757.163	781.431
758.293	777.973
759.423	774.125
760.551	770.205
761.681	765.911
762.81	761.242
763.938	755.798
765.066	750.875
766.194	747.562
767.321	744.819
768.449	741.298
769.576	739.816
770.703	737.621
771.83	734.905
772.955	731.833
774.081	727.801
775.207	724.35
776.332	721.841
777.457	719.909
778.582	718.173
779.707	716.611
780.831	715.108
781.954	713.658
783.078	712.17
784.201	710.797
785.324	709.36
786.447	708.044
787.569	706.752
788.691	705.471
789.813	704.18
790.935	702.893
792.056	701.563
793.177	700.078
794.297	698.781
795.418	697.397
796.539	695.81
797.658	693.219
798.777	690.504
799.897	687.314
801.016	684.337
802.134	681.799
803.253	680.369
804.371	679.559
805.489	679.13
806.606	678.874
807.723	677.595
808.84	676.133
809.957	674.494
811.073	672.484
812.19	670.496
813.305	668.747
814.421	668.268
815.536	668.398
816.651	666.58
817.766	664.216
818.88	661.941
819.994	659.266
821.108	656.945
822.221	655.344
823.335	654.654
824.448	654.905
825.56	655.677
826.673	656.027
827.784	656.986
828.897	658.112
830.008	658.379
831.119	658.469
832.23	657.967
833.341	657.458
834.451	657.896
835.561	658.423
836.671	658.052
837.78	657.315
838.89	656.086
839.998	654.57
841.108	653.121
842.216	651.27
843.324	649.281
844.431	647.395
845.539	646.234
846.646	645.921
847.753	646.344
848.859	646.454
849.966	645.794
851.071	644.521
852.178	642.849
853.283	640.87
854.388	638.456
855.494	635.84
856.598	633.074
857.703	630.743
858.806	628.461
859.91	626.33
861.014	624.56
862.116	622.698
863.22	624.321
864.322	621.827
865.425	618.508
866.527	617.223
867.628	612.666
868.73	616.777
869.831	623.033
870.932	620.541
872.032	615.943
873.133	611.803
874.233	608.412
875.333	606.23
876.432	604.864
877.532	601.796
878.631	599.261
879.729	596.692
880.828	595.056
881.926	593.812
883.023	592.822
884.121	592.039
885.218	591.522
886.315	591.124
887.412	590.826
888.508	590.657
889.604	590.481
890.699	590.795
891.795	590.24
892.89	589.473
893.985	588.41
895.08	587.731
896.174	587.327
897.268	587.056
898.362	586.938
899.456	586.985
900.549	587.221
901.642	587.654
902.734	588.297
903.827	589.139
904.919	590.16
906.011	591.359
907.102	592.961
908.193	594.608
909.284	595.885
910.375	597.459
911.465	598.71
912.555	599.64
913.645	602.115
914.734	601.703
915.824	599.526
916.913	597.055
918.001	594.337
919.09	590.942
920.177	586.791
921.266	582.636
922.353	578.986
923.44	575.558
924.527	572.139
925.614	568.771
926.7	565.279
927.786	561.315
928.873	559.405
929.958	557.555
931.043	555.615
932.128	553.349
933.213	550.929
934.297	548.471
935.381	546.007
936.465	543.472
937.549	541.131
938.632	538.98
939.715	536.696
940.798	534.615
941.881	533.239
942.962	532.162
944.044	531.125
945.125	529.611
946.207	528.634
947.288	528.318
948.368	528.308
949.449	528.464
950.529	529.259
951.61	529.755
952.689	529.205
953.769	529.508
954.847	529.314
955.926	528.359
957.004	526.991
958.082	525.329
959.16	523.037
960.238	520.698
961.316	518.507
962.392	516.886
963.469	515.705
964.546	514.718
965.622	513.815
966.698	511.925
967.774	511.013
968.849	510.723
969.924	510.935
970.998	511.608
972.073	512.872
973.148	514.308
974.221	514.249
975.295	515.929
976.369	518.238
977.441	520.938
978.514	523.755
979.587	526.724
980.659	529.728
981.731	532.538
982.802	538.63
983.874	540.258
984.945	541.062
986.016	540.299
987.087	538.326
988.157	535.039
989.227	532.456
990.296	528.179
991.366	525.618
992.435	523.273
993.504	521.324
994.573	519.928
995.641	519.36
996.709	519.436
997.777	517.145
998.844	515.974
999.911	515.464
1000.98	515.56
1002.05	516.661
1003.11	515.785
1004.18	514.945
1005.24	513.426
1006.31	511.259
1007.37	507.865
1008.44	503.644
1009.5	499.644
1010.57	493.794
1011.63	490.619
1012.7	487.34
1013.76	484.417
1014.82	481.567
1015.89	478.934
1016.95	476.617
1018.01	479.22
1019.07	477.526
1020.13	475.621
1021.2	473.22
1022.26	470.343
1023.32	466.937
1024.38	460.871
1025.44	457.429
1026.5	454.367
1027.56	451.788
1028.62	449.632
1029.68	447.975
1030.74	447.054
1031.8	446.88
1032.85	448.569
1033.91	448.838
1034.97	449.666
1036.03	451.36
1037.09	453.2
1038.14	454.855
1039.2	455.793
1040.26	455.908
1041.31	455.252
1042.37	453.559
1043.42	452.532
1044.48	452.161
1045.53	452.343
1046.59	452.451
1047.64	451.399
1048.7	449.934
1049.75	448.351
1050.81	446.696
1051.86	445.074
1052.91	443.614
1053.97	442.291
1055.02	441.005
1056.07	439.737
1057.12	438.66
1058.17	437.734
1059.23	436.883
1060.28	436.211
1061.33	435.594
1062.38	434.817
1063.43	434.294
1064.48	433.873
1065.53	433.503
1066.58	433.008
1067.63	431.904
1068.68	429.898
1069.72	427.822
1070.77	425.699
1071.82	424.171
1072.87	422.592
1073.92	421.163
1074.96	419.771
1076.01	419.132
1077.06	418.864
1078.1	418.81
1079.15	418.662
1080.2	418.872
1081.24	419.07
1082.29	418.914
1083.33	417.913
1084.38	417.696
1085.42	416.67
1086.47	415.251
1087.51	413.549
1088.55	412.073
1089.6	410.808
1090.64	409.415
1091.68	407.25
1092.73	406.084
1093.77	403.715
1094.81	401.846
1095.85	400.504
1096.89	399.465
1097.93	398.79
1098.98	398.483
1100.02	398.468
1101.06	398.91
1102.1	399.472
1103.14	400.019
1104.18	399.769
1105.21	400.428
1106.25	401.372
1107.29	403.044
1108.33	405.076
1109.37	406.954
1110.41	407.699
1111.44	407.919
1112.48	407.67
1113.52	407.75
1114.56	406.93
1115.59	404.931
1116.63	402.781
1117.66	400.851
1118.7	399.188
1119.73	397.693
1120.77	396.443
1121.8	395.477
1122.84	394.912
1123.87	394.434
1124.91	392.896
1125.94	391.054
1126.97	389.246
1128.01	387.689
1129.04	386.953
1130.07	387.027
1131.11	388.228
1132.14	390.09
1133.17	391.068
1134.2	393.914
1135.23	397.561
1136.26	402.053
1137.29	407.079
1138.32	412.842
1139.35	419.107
1140.38	426.784
1141.41	431.538
1142.44	435.202
1143.47	438.107
1144.5	440.016
1145.53	440.991
1146.56	441.238
1147.58	437.011
1148.61	436.351
1149.64	434.448
1150.67	437.067
1151.69	441.607
1152.72	447.11
1153.75	451.092
1154.77	456.025
1155.8	461.68
1156.82	463.326
1157.85	462.522
1158.87	459.883
1159.9	454.51
1160.92	448.757
1161.95	441.163
1162.97	428.07
1163.99	419.037
1165.02	410.964
1166.04	402.679
1167.06	394.813
1168.08	386.884
1169.11	380.917
1170.13	377.579
1171.15	375.427
1172.17	374.249
1173.19	373.795
1174.21	374.251
1175.23	375.568
1176.25	377.536
1177.27	380.432
1178.29	383.904
1179.31	387.991
1180.33	392.127
1181.35	396.374
1182.37	400.309
1183.39	403.291
1184.4	405.661
1185.42	407.316
1186.44	408.098
1187.46	407.984
1188.47	406.536
1189.49	404.402
1190.51	400.786
1191.52	397.664
1192.54	392.294
1193.55	384.988
1194.57	378.179
1195.58	372.119
1196.6	366.89
1197.61	362.562
1198.63	359.077
1199.64	356.471
1200.65	354.845
1201.67	354.189
1202.68	354.502
1203.69	355.314
1204.7	355.861
1205.72	356.253
1206.73	356.413
1207.74	356.328
1208.75	355.129
1209.76	355.021
1210.77	355.134
1211.78	355.204
1212.79	354.85
1213.8	354.448
1214.81	353.928
1215.82	353.502
1216.83	353.441
1217.84	353.905
1218.85	355.24
1219.86	356.633
1220.87	358.007
1221.87	359.114
1222.88	359.505
1223.89	359.751
1224.9	359.569
1225.9	358.976
1226.91	357.261
1227.92	355.618
1228.92	354.293
1229.93	352.655
1230.93	350.648
1231.94	347.714
1232.94	344.428
1233.95	340.905
1234.95	337.368
1235.95	334.255
1236.96	331.282
1237.96	328.518
1238.96	325.787
1239.97	323.119
1240.97	320.518
1241.97	317.908
1242.97	315.478
1243.98	313.285
1244.98	311.326
1245.98	309.754
1246.98	308.971
1247.98	308.499
1248.98	308.226
1249.98	308.076
1250.98	307.715
1251.98	307.332
1252.98	306.963
1253.98	306.663
1254.98	306.332
1255.98	306.092
1256.97	305.838
1257.97	305.716
1258.97	305.803
1259.97	306.125
1260.97	307.781
1261.96	309.321
1262.96	310.835
1263.95	311.746
1264.95	312.485
1265.95	312.848
1266.94	312.943
1267.94	312.948
1268.93	312.823
1269.93	311.749
1270.92	310.055
1271.92	308.494
1272.91	306.18
1273.9	303.974
1274.9	301.938
1275.89	300.299
1276.88	298.938
1277.87	297.889
1278.87	297.035
1279.86	296.511
1280.85	296.351
1281.84	296.4
1282.83	296.901
1283.82	298.084
1284.81	300.197
1285.81	301.963
1286.8	303.661
1287.79	305.207
1288.77	306.224
1289.76	305.969
1290.75	305.298
1291.74	304.32
1292.73	303.164
1293.72	301.85
1294.71	300.379
1295.69	298.492
1296.68	296.138
1297.67	293.559
1298.65	291.561
1299.64	289.741
1300.63	288.318
1301.61	287.324
1302.6	287.2
1303.58	287.488
1304.57	288.383
1305.55	289.321
1306.54	289.849
1307.52	289.715
1308.51	288.994
1309.49	288.091
1310.48	287.061
1311.46	286.241
1312.44	285.311
1313.42	284.478
1314.41	283.657
1315.39	282.359
1316.37	281.207
1317.35	281.174
1318.33	281.918
1319.32	283.505
1320.3	286.008
1321.28	289.116
1322.26	293.076
1323.24	298.062
1324.22	304.646
1325.2	312.282
1326.18	318.716
1327.15	323.853
1328.13	327.552
1329.11	327.092
1330.09	323.633
1331.07	318.47
1332.05	310.7
1333.02	302.16
1334	294.309
1334.98	286.93
1335.95	280.3
1336.93	274.12
1337.91	273.778
1338.88	272.76
1339.86	271.461
1340.83	269.302
1341.81	267.111
1342.78	265.29
1343.76	263.987
1344.73	263.042
1345.7	262.314
1346.68	261.847
1347.65	261.602
1348.62	261.537
1349.6	261.572
1350.57	261.502
1351.54	261.688
1352.51	261.901
1353.49	262.312
1354.46	262.813
1355.43	263.403
1356.4	264.246
1357.37	268.049
1358.34	266.286
1359.31	261.922
1360.28	257.516
1361.25	251.709
1362.22	247.632
1363.19	243.87
1364.16	241.51
1365.12	240.953
1366.09	242.437
1367.06	244.051
1368.03	245.472
1369	247.014
1369.96	248.38
1370.93	249.44
1371.9	250.131
1372.86	250.674
1373.83	250.477
1374.79	250.03
1375.76	249.45
1376.73	248.713
1377.69	247.892
1378.66	247.329
1379.62	246.728
1380.58	246.165
1381.55	245.773
1382.51	245.421
1383.48	245.338
1384.44	245.368
1385.4	245.76
1386.36	246.682
1387.33	247.5
1388.29	247.832
1389.25	247.586
1390.21	247.448
1391.17	248.103
1392.13	248.579
1393.09	247.931
1394.06	246.79
1395.01	245.537
1395.97	244.66
1396.93	244.731
1397.89	244.804
1398.85	244.259
1399.81	242.256
1400.77	239.781
1401.73	237.468
1402.69	235.18
1403.64	233.415
1404.6	231.726
1405.56	230.255
1406.52	228.878
1407.47	227.627
1408.43	226.514
1409.39	225.55
1410.34	224.66
1411.3	223.643
1412.25	222.673
1413.21	221.806
1414.16	221.132
1415.12	220.627
1416.07	220.332
1417.03	220.724
1417.98	221.275
1418.93	222.426
1419.89	223.471
1420.84	223.98
1421.79	223.982
1422.74	223.907
1423.7	223.853
1424.65	223.914
1425.6	224.1
1426.55	224.701
1427.5	225.505
1428.45	226.33
1429.4	227.275
1430.35	228.146
1431.3	228.786
1432.25	229.58
1433.2	230.498
1434.15	232.183
1435.1	234.04
1436.05	237.371
1437	238.628
1437.95	239.397
1438.89	239.097
1439.84	238.369
1440.79	237.327
1441.74	236.098
1442.68	234.801
1443.63	233.435
1444.58	231.969
1445.52	230.383
1446.47	228.543
1447.41	226.613
1448.36	224.688
1449.3	223.912
1450.25	222.166
1451.19	220.39
1452.14	218.731
1453.08	216.937
1454.03	215.173
1454.97	213.64
1455.91	211.928
1456.85	211.172
1457.8	210.625
1458.74	210.319
1459.68	210.023
1460.62	209.77
1461.57	209.576
1462.51	209.23
1463.45	208.988
1464.39	208.689
1465.33	208.44
1466.27	208.222
1467.21	207.985
1468.15	207.773
1469.09	207.537
1470.03	207.345
1470.97	207.128
1471.9	206.927
1472.84	206.71
1473.78	206.467
1474.72	206.209
1475.66	205.887
1476.59	205.539
1477.53	205.129
1478.47	204.598
1479.4	203.914
1480.34	202.994
1481.28	202.273
1482.21	201.645
1483.15	202.386
1484.08	203.78
1485.02	205.574
1485.95	207.207
1486.89	208.7
1487.82	210.215
1488.76	211.592
1489.69	212.959
1490.62	213.633
1491.56	214.346
1492.49	215.029
1493.42	214.911
1494.35	214.351
1495.29	213.415
1496.22	212.096
1497.15	210.183
1498.08	208.187
1499.01	206.281
1499.94	205.363
1500.87	204.797
1501.8	204.486
1502.73	204.386
1503.66	204.591
1504.59	205.059
1505.52	205.88
1506.45	206.965
1507.38	208.365
1508.31	210.042
1509.23	211.933
1510.16	214.124
1511.09	216.5
1512.02	219.102
1512.94	222.038
1513.87	225.461
1514.8	230.805
1515.72	234.089
1516.65	240.49
1517.58	247.69
1518.5	254.847
1519.43	262.057
1520.35	269.202
1521.28	276.113
1522.2	282.742
1523.12	289.033
1524.05	294.763
1524.97	299.385
1525.9	302.48
1526.82	306.224
1527.74	310.126
1528.66	307.483
1529.59	302.786
1530.51	296.422
1531.43	288.719
1532.35	280.43
1533.27	271.894
1534.19	263.371
1535.11	254.752
1536.04	246.264
1536.96	238.116
1537.88	231.108
1538.8	228.462
1539.71	223.857
1540.63	219.776
1541.55	216.285
1542.47	213.376
1543.39	210.972
1544.31	209.113
1545.23	207.689
1546.14	206.786
1547.06	206.203
1547.98	206.095
1548.89	206.355
1549.81	207.545
1550.73	206.728
1551.64	205.462
1552.56	204.083
1553.47	202.572
1554.39	201.007
1555.31	199.359
1556.22	197.682
1557.13	195.942
1558.05	194.059
1558.96	192.297
1559.88	190.11
1560.79	187.813
1561.7	185.572
1562.62	183.502
1563.53	181.434
1564.44	179.438
1565.35	177.878
1566.27	176.33
1567.18	175.007
1568.09	173.786
1569	172.761
1569.91	171.922
1570.82	171.308
1571.73	170.771
1572.64	170.387
1573.55	170.066
1574.46	169.735
1575.37	169.438
1576.28	168.927
1577.19	168.67
1578.1	168.476
1579	168.642
1579.91	169.153
1580.82	169.766
1581.73	170.596
1582.63	171.652
1583.54	172.846
1584.45	174.27
1585.35	175.794
1586.26	177.16
1587.17	177.937
1588.07	179.057
1588.98	180.02
1589.88	180.83
1590.79	181.378
1591.69	181.795
1592.6	182.037
1593.5	182.157
1594.4	182.111
1595.31	181.934
1596.21	181.75
1597.11	181.649
1598.02	181.698
1598.92	181.826
1599.82	182.04
1600.72	182.148
1601.63	182.278
1602.53	182.465
1603.43	182.594
1604.33	182.585
1605.23	182.709
1606.13	183.065
1607.03	183.595
1607.93	184
1608.83	184.359
1609.73	184.646
1610.63	184.728
1611.53	184.919
1612.43	185.2
1613.32	185.545
1614.22	185.866
1615.12	186.687
1616.02	187.51
1616.92	188.285
1617.81	189.002
1618.71	189.627
1619.61	189.559
1620.5	189.581
1621.4	189.756
1622.29	189.563
1623.19	189.067
1624.08	188.266
1624.98	187.186
1625.87	185.874
1626.77	184.319
1627.66	182.55
1628.56	180.737
1629.45	179.648
1630.34	179.756
1631.24	180.375
1632.13	181.11
1632.84	181.655
1633.77	182.076
1634.7	182.437
1635.63	182.643
1636.56	182.845
1637.49	182.915
1638.42	182.999
1639.34	182.927
1640.27	182.872
1641.2	182.603
1642.13	182.175
1643.05	181.753
1643.98	181.342
1644.91	180.929
1645.83	180.619
1646.76	180.326
1647.68	180.288
1648.61	180.491
1649.54	180.622
1650.46	180.95
1651.39	183.339
1652.31	183.994
1653.23	184.17
1654.16	183.899
1655.08	183.3
1656.01	182.432
1656.93	180.679
1657.85	178.884
1658.78	177.175
1659.7	175.645
1660.62	174.731
1661.54	174.122
1662.47	173.923
1663.39	173.973
1664.31	174.36
1665.23	175.177
1666.15	176.055
1667.07	177.126
1667.99	177.97
1668.92	178.805
1669.84	179.456
1670.76	179.872
1671.68	180.122
1672.6	179.978
1673.52	179.74
1674.43	179.324
1675.35	178.745
1676.27	177.977
1677.19	177.08
1678.11	175.972
1679.03	174.564
1679.95	173.357
1680.86	172.502
1681.78	173.347
1682.7	174.21
1683.61	174.936
1684.53	175.485
1685.45	175.619
1686.36	175.614
1687.28	175.427
1688.2	175.053
1689.11	174.514
1690.03	173.828
1690.94	173.1
1691.86	172.298
1692.77	171.11
1693.69	169.815
1694.6	168.361
1695.52	167.142
1696.43	165.933
1697.34	164.711
1698.26	163.777
1699.17	163.046
1700.08	162.162
1700.99	161.208
1701.91	160.274
1702.82	159.255
1703.73	158.343
1704.64	157.077
1705.55	155.661
1706.47	154.285
1707.38	153.071
1708.29	151.91
1709.2	150.906
1710.11	150.02
1711.02	149.243
1711.93	149.49
1712.84	149.622
1713.75	149.958
1714.66	150.243
1715.57	150.674
1716.48	151.028
1717.39	151.24
1718.29	151.286
1719.2	151.435
1720.11	151.607
1721.02	151.734
1721.93	151.849
1722.83	152.004
1723.74	152.288
1724.65	152.63
1725.55	152.98
1726.46	153.497
1727.37	154.071
1728.27	154.554
1729.18	155.081
1730.08	155.411
1730.99	155.515
1731.89	155.012
1732.8	154.308
1733.7	152.862
1734.61	152.176
1735.51	151.846
1736.42	151.049
1737.32	150.699
1738.22	151.118
1739.13	151.619
1740.03	151.962
1740.93	151.806
1741.83	153.597
1742.74	154.13
1743.64	154.221
1744.54	153.712
1745.44	152.89
1746.34	150.456
1747.24	148.818
1748.15	147.229
1749.05	146.456
1749.95	145.97
1750.85	145.63
1751.75	145.202
1752.65	144.804
1753.55	144.638
1754.45	145.594
1755.35	146.02
1756.25	145.744
1757.14	145.09
1758.04	144.349
1758.94	143.037
1759.84	141.789
1760.74	141.319
1761.63	141.161
1762.53	141.266
1763.43	141.897
1764.33	142.546
1765.22	143.248
1766.12	143.91
1767.02	144.392
1767.91	144.737
1768.81	144.902
1769.7	144.966
1770.6	145.012
1771.49	144.899
1772.39	144.528
1773.28	144.091
1774.18	143.61
1775.07	143.098
1775.97	142.607
1776.86	142.056
1777.75	141.558
1778.65	141.052
1779.54	140.556
1780.43	140.075
1781.33	139.637
1782.22	139.275
1783.11	138.947
1784	138.687
1784.89	138.43
1785.79	138.278
1786.68	137.979
1787.57	138.001
1788.46	138.07
1789.35	138.23
1790.24	138.356
1791.13	138.41
1792.02	138.429
1792.91	138.39
1793.8	138.271
1794.69	136.943
1795.58	135.862
1796.47	134.356
1797.36	132.106
1798.25	129.111
1799.13	126.271
