Acq. time (s)=	15
Accumulations=	2
Range (cm-¹)=	600...1800
Windows=	2
Autofocus=	Off
AutoExposure=	On
Spike filter=	Multiple accum.
Delay time (s)=	1
Binning=	1
Readout mode=	Signal
DeNoise=	Standard
ICS correction=	Off
Dark correction=	Off
Inst. Process=	Off
Instrument=	XploRA
Detector=	Syncerity
Objective=	x20LWD
Grating=	1200 gr/mm
Filter=	25%
Laser (nm)=	785 
Slit (µm)=	100 
Hole (µm)=	300 
Laser pol=	None
Raman pol=	None
Output=	Camera
StageXY=	Marzhauser
StageZ=	
X (µm)=	2317.1
Y (µm)=	-2509.8
Project=	
Sample=	
Site=	
Title=	To5-T
Remark=	
Date=	14.10.2022 21:05
Acquired=	14.10.2022 21:05:58
600.787	1345.48
601.956	1375.38
603.126	1403.8
604.294	1432.23
605.463	1458.9
606.631	1482.75
607.8	1504.9
608.967	1526.26
610.135	1546.71
611.302	1565.41
612.468	1582.28
613.635	1597.13
614.802	1610.92
615.968	1624.03
617.133	1636.28
618.299	1647.49
619.464	1657.06
620.629	1664.51
621.793	1669.5
622.958	1675.55
624.121	1681.69
625.285	1688.3
626.448	1695.63
627.612	1703.86
628.774	1712.21
629.937	1720.27
631.099	1726.24
632.261	1731.3
633.423	1735.38
634.584	1738.34
635.745	1741.49
636.906	1743.42
638.066	1743.75
639.227	1743.95
640.386	1746
641.546	1748.37
642.705	1747.35
643.864	1748.07
645.023	1747.67
646.181	1748.75
647.339	1752.33
648.497	1757.28
649.655	1763.06
650.812	1768.91
651.969	1775.03
653.125	1781.56
654.282	1787.8
655.438	1792.63
656.593	1796.09
657.75	1798.02
658.905	1801.66
660.059	1798.33
661.214	1801.73
662.368	1804.86
663.522	1804.42
664.676	1804.05
665.83	1806.36
666.983	1809.74
668.136	1813.84
669.288	1818.2
670.441	1823.92
671.592	1829.84
672.744	1836.27
673.895	1842.15
675.046	1847.32
676.197	1851.61
677.348	1853.73
678.498	1855.62
679.648	1860.5
680.798	1865.34
681.947	1869.86
683.096	1873.91
684.245	1876.61
685.394	1879.07
686.542	1881.2
687.69	1883.22
688.837	1885.8
689.984	1889.35
691.132	1892.98
692.278	1896.34
693.425	1898.43
694.571	1900.1
695.717	1901.13
696.863	1902.09
698.008	1901.07
699.152	1899.51
700.298	1897.87
701.442	1896.4
702.586	1894.98
703.73	1893.44
704.873	1891.92
706.017	1890.29
707.16	1888.51
708.302	1886.75
709.445	1884.97
710.586	1883.11
711.729	1881.26
712.87	1879.31
714.012	1877.35
715.152	1875.25
716.293	1873.21
717.433	1871.18
718.573	1869.25
719.713	1867.33
720.853	1865.34
721.991	1863.92
723.131	1863.91
724.269	1864.81
725.408	1865.83
726.545	1867.17
727.683	1867.83
728.821	1869.05
729.958	1872.1
731.095	1876.18
732.231	1881.41
733.368	1887.75
734.503	1894.87
735.639	1902.91
736.775	1911.81
737.91	1921.02
739.045	1930.1
740.179	1938.73
741.313	1945.48
742.447	1949.8
743.581	1951.12
744.714	1950.26
745.847	1946.76
746.98	1939.93
748.113	1930.31
749.245	1919.88
750.377	1908.97
751.509	1898.29
752.64	1887.55
753.771	1876.9
754.902	1863.67
756.033	1852.31
757.163	1842.24
758.293	1833.39
759.423	1826.64
760.551	1820.1
761.681	1812.38
762.81	1804.5
763.938	1796.05
765.066	1787.56
766.194	1779.15
767.321	1771.87
768.449	1765.34
769.576	1758.75
770.703	1751.99
771.83	1743.74
772.955	1736.75
774.081	1731.37
775.207	1724.98
776.332	1719
777.457	1713.25
778.582	1708.1
779.707	1703.47
780.831	1699.51
781.954	1695.79
783.078	1692.22
784.201	1688.12
785.324	1683.97
786.447	1679.58
787.569	1675.58
788.691	1671.5
789.813	1667.54
790.935	1661.73
792.056	1657.84
793.177	1654.71
794.297	1652.97
795.418	1651.38
796.539	1648.87
797.658	1645.16
798.777	1641.07
799.897	1636.78
801.016	1632.38
802.134	1627.83
803.253	1623.98
804.371	1619.96
805.489	1616.23
806.606	1611.94
807.723	1607.37
808.84	1602.06
809.957	1597.05
811.073	1592.05
812.19	1587.74
813.305	1582.9
814.421	1578.41
815.536	1574.6
816.651	1572.17
817.766	1570.78
818.88	1570.32
819.994	1572.08
821.108	1574.15
822.221	1576.05
823.335	1578.16
824.448	1581.13
825.56	1583.79
826.673	1585.66
827.784	1586.35
828.897	1586.25
830.008	1585.16
831.119	1582.54
832.23	1579.02
833.341	1574.09
834.451	1567.79
835.561	1560.18
836.671	1554.3
837.78	1550.24
838.89	1546.96
839.998	1544.32
841.108	1542.27
842.216	1540.33
843.324	1538.35
844.431	1536.7
845.539	1536.34
846.646	1536.76
847.753	1535.07
848.859	1532.79
849.966	1529.98
851.071	1526.47
852.178	1522.91
853.283	1518.99
854.388	1516.95
855.494	1511.22
856.598	1503.77
857.703	1498.47
858.806	1494.18
859.91	1490.87
861.014	1487.9
862.116	1485.21
863.22	1480.43
864.322	1475.41
865.425	1470.2
866.527	1466.63
867.628	1462.43
868.73	1457.45
869.831	1453.71
870.932	1450.41
872.032	1447.17
873.133	1444.24
874.233	1441.79
875.333	1439.92
876.432	1433.88
877.532	1427.98
878.631	1422.55
879.729	1417.77
880.828	1413.64
881.926	1410.23
883.023	1407.47
884.121	1405.14
885.218	1402.77
886.315	1400.05
887.412	1397.44
888.508	1396.08
889.604	1394.59
890.699	1392.86
891.795	1390.95
892.89	1389.73
893.985	1389.52
895.08	1391.12
896.174	1393.01
897.268	1394.29
898.362	1395.41
899.456	1396.05
900.549	1395.98
901.642	1395.8
902.734	1395.74
903.827	1396.11
904.919	1397.33
906.011	1399.31
907.102	1402.12
908.193	1404.96
909.284	1407.7
910.375	1409.61
911.465	1410.67
912.555	1411.11
913.645	1411.05
914.734	1410.79
915.824	1416.39
916.913	1412.84
918.001	1407.54
919.09	1401.25
920.177	1393.95
921.266	1386.46
922.353	1378.16
923.44	1369.38
924.527	1357.65
925.614	1348.83
926.7	1341.75
927.786	1335.75
928.873	1330.12
929.958	1323.86
931.043	1316.07
932.128	1308.67
933.213	1304.16
934.297	1299.59
935.381	1296.73
936.465	1293.61
937.549	1291.49
938.632	1284.36
939.715	1277.45
940.798	1272.48
941.881	1269.08
942.962	1267.38
944.044	1263.72
945.125	1263.48
946.207	1265.6
947.288	1270.05
948.368	1275.22
949.449	1274.04
950.529	1271.04
951.61	1268.61
952.689	1265.28
953.769	1260.58
954.847	1253.73
955.926	1251.86
957.004	1249.22
958.082	1245.22
959.16	1238.35
960.238	1233.34
961.316	1233.34
962.392	1234.41
963.469	1235.62
964.546	1237.09
965.622	1238.62
966.698	1240.28
967.774	1242.03
968.849	1243.64
969.924	1244.02
970.998	1243.93
972.073	1244.19
973.148	1243.08
974.221	1243.25
975.295	1242.72
976.369	1238.31
977.441	1238.43
978.514	1239.61
979.587	1241.48
980.659	1244.19
981.731	1247.83
982.802	1252.48
983.874	1257.2
984.945	1261.74
986.016	1265.45
987.087	1268.39
988.157	1270.74
989.227	1272.7
990.296	1274.14
991.366	1274.93
992.435	1272.03
993.504	1267.75
994.573	1261.49
995.641	1257.97
996.709	1253.74
997.777	1249.39
998.844	1246.48
999.911	1243.67
1000.98	1240.36
1002.05	1238.22
1003.11	1239.35
1004.18	1235.9
1005.24	1229.78
1006.31	1222.54
1007.37	1213.31
1008.44	1203.21
1009.5	1193.92
1010.57	1183.87
1011.63	1172.84
1012.7	1162.29
1013.76	1153.07
1014.82	1145.46
1015.89	1137.48
1016.95	1133.48
1018.01	1128.51
1019.07	1123.78
1020.13	1123.53
1021.2	1119.41
1022.26	1115.43
1023.32	1110.02
1024.38	1107.14
1025.44	1104.17
1026.5	1101.97
1027.56	1101.38
1028.62	1099.08
1029.68	1096.41
1030.74	1095.01
1031.8	1093.7
1032.85	1090.44
1033.91	1087.7
1034.97	1086.13
1036.03	1085.18
1037.09	1085.04
1038.14	1085.99
1039.2	1086.68
1040.26	1087.48
1041.31	1087.7
1042.37	1088.19
1043.42	1088.55
1044.48	1090.85
1045.53	1092.28
1046.59	1091.34
1047.64	1090.49
1048.7	1089.17
1049.75	1087.44
1050.81	1085.16
1051.86	1081.97
1052.91	1077.92
1053.97	1072.42
1055.02	1066.65
1056.07	1062.03
1057.12	1057.56
1058.17	1047.1
1059.23	1041.15
1060.28	1036.22
1061.33	1033.54
1062.38	1031.06
1063.43	1029.74
1064.48	1030.67
1065.53	1034.84
1066.58	1040.33
1067.63	1042.36
1068.68	1043.8
1069.72	1045.8
1070.77	1044.07
1071.82	1040.02
1072.87	1036.04
1073.92	1033.35
1074.96	1029.35
1076.01	1024.03
1077.06	1018.77
1078.1	1014.44
1079.15	1010.68
1080.2	1007.62
1081.24	1005.37
1082.29	1003.68
1083.33	1001.64
1084.38	998.315
1085.42	995.617
1086.47	993.969
1087.51	992.089
1088.55	991.168
1089.6	991.099
1090.64	990.566
1091.68	988.923
1092.73	987.751
1093.77	987.797
1094.81	986.678
1095.85	984.388
1096.89	981.252
1097.93	978.692
1098.98	977.458
1100.02	976.881
1101.06	977.124
1102.1	978.272
1103.14	976.092
1104.18	975.317
1105.21	973.983
1106.25	976.176
1107.29	975.621
1108.33	975.058
1109.37	973.262
1110.41	974.15
1111.44	974.481
1112.48	976.507
1113.52	975.225
1114.56	967.545
1115.59	959.201
1116.63	951.956
1117.66	946.48
1118.7	943.041
1119.73	941.206
1120.77	940.693
1121.8	934.074
1122.84	924.748
1123.87	914.168
1124.91	926.83
1125.94	925.49
1126.97	924.321
1128.01	925.203
1129.04	926.381
1130.07	929.336
1131.11	931.285
1132.14	934.189
1133.17	941.162
1134.2	947.648
1135.23	957.041
1136.26	963.481
1137.29	976.856
1138.32	990.638
1139.35	1002.68
1140.38	1009.09
1141.41	1012.93
1142.44	1017.84
1143.47	1019.74
1144.5	1020.11
1145.53	1020.98
1146.56	1020.74
1147.58	1027.77
1148.61	1033.54
1149.64	1031.24
1150.67	1045.1
1151.69	1063.4
1152.72	1073.82
1153.75	1088.6
1154.77	1098.74
1155.8	1102.7
1156.82	1100.74
1157.85	1096
1158.87	1083.12
1159.9	1065.79
1160.92	1032.89
1161.95	1011.16
1162.97	987.901
1163.99	967.424
1165.02	952.622
1166.04	936.577
1167.06	926.364
1168.08	915.768
1169.11	906.632
1170.13	903.917
1171.15	907
1172.17	905.846
1173.19	906.473
1174.21	909.394
1175.23	913.237
1176.25	919.187
1177.27	926.161
1178.29	933.116
1179.31	940.176
1180.33	947.018
1181.35	953.606
1182.37	959.073
1183.39	963.386
1184.4	966.901
1185.42	969.095
1186.44	968.062
1187.46	965.695
1188.47	959.308
1189.49	952.517
1190.51	943.122
1191.52	932.207
1192.54	920.32
1193.55	908.157
1194.57	896.689
1195.58	885.563
1196.6	875.17
1197.61	865.274
1198.63	853.574
1199.64	848.412
1200.65	845.512
1201.67	844.168
1202.68	844.906
1203.69	846.301
1204.7	847.342
1205.72	848.958
1206.73	849.473
1207.74	849.6
1208.75	845.559
1209.76	846.929
1210.77	847.926
1211.78	850.586
1212.79	850.558
1213.8	852.626
1214.81	854.342
1215.82	856.829
1216.83	858.603
1217.84	861.205
1218.85	865.047
1219.86	868.063
1220.87	868.583
1221.87	869.948
1222.88	868.958
1223.89	869.421
1224.9	872.049
1225.9	871.372
1226.91	867.904
1227.92	864.35
1228.92	858.326
1229.93	850.522
1230.93	840.857
1231.94	831.568
1232.94	822.343
1233.95	820.045
1234.95	813.237
1235.95	805.422
1236.96	797.082
1237.96	788.942
1238.96	781.45
1239.97	773.76
1240.97	767.095
1241.97	762.521
1242.97	757.676
1243.98	754.506
1244.98	750.933
1245.98	749.089
1246.98	746.872
1247.98	744.482
1248.98	742.921
1249.98	741.141
1250.98	741.526
1251.98	741.737
1252.98	741.839
1253.98	743.234
1254.98	744.671
1255.98	745.462
1256.97	745.569
1257.97	746.605
1258.97	747.328
1259.97	748.24
1260.97	748.624
1261.96	748.217
1262.96	747.31
1263.95	746.109
1264.95	744.088
1265.95	741.427
1266.94	739.268
1267.94	737.419
1268.93	735.886
1269.93	733.616
1270.92	730.911
1271.92	728.309
1272.91	724.926
1273.9	722.614
1274.9	717.863
1275.89	715.765
1276.88	714.245
1277.87	714.218
1278.87	715.086
1279.86	717.187
1280.85	718.56
1281.84	722.472
1282.83	732.946
1283.82	736.172
1284.81	738.493
1285.81	740.591
1286.8	742.338
1287.79	740.952
1288.77	738.248
1289.76	732.671
1290.75	726.961
1291.74	717.111
1292.73	711.253
1293.72	704.152
1294.71	698.594
1295.69	693.756
1296.68	689.969
1297.67	688.227
1298.65	686.98
1299.64	693.186
1300.63	693.599
1301.61	693.563
1302.6	694.395
1303.58	693.403
1304.57	692.674
1305.55	690.988
1306.54	688.711
1307.52	685.045
1308.51	680.849
1309.49	675.661
1310.48	672.532
1311.46	670.256
1312.44	669.073
1313.42	668.026
1314.41	668.219
1315.39	668.578
1316.37	671.743
1317.35	674.738
1318.33	681.519
1319.32	682.087
1320.3	693.993
1321.28	707.497
1322.26	722.264
1323.24	740.34
1324.22	761.418
1325.2	769.976
1326.18	774.379
1327.15	774.248
1328.13	770.901
1329.11	762.485
1330.09	736.604
1331.07	723.257
1332.05	708.753
1333.02	694.498
1334	679.109
1334.98	673.046
1335.95	666.155
1336.93	666.068
1337.91	660.649
1338.88	657.146
1339.86	652.762
1340.83	649.918
1341.81	646.846
1342.78	643.708
1343.76	641.152
1344.73	639.873
1345.7	638.156
1346.68	635.878
1347.65	633.185
1348.62	632.583
1349.6	631.742
1350.57	632.17
1351.54	632.804
1352.51	633.678
1353.49	634.139
1354.46	633.457
1355.43	632.811
1356.4	630.46
1357.37	627.752
1358.34	623.804
1359.31	618.865
1360.28	614.423
1361.25	609.213
1362.22	603.579
1363.19	599.751
1364.16	596.295
1365.12	592.734
1366.09	589.942
1367.06	588.783
1368.03	587.639
1369	587.811
1369.96	588.593
1370.93	589.573
1371.9	590.392
1372.86	591.934
1373.83	593.709
1374.79	594.941
1375.76	595.063
1376.73	596.158
1377.69	597.44
1378.66	598.635
1379.62	599.378
1380.58	599.316
1381.55	599.367
1382.51	600.057
1383.48	599.876
1384.44	598.247
1385.4	596.572
1386.36	595.076
1387.33	593.304
1388.29	591.621
1389.25	589.994
1390.21	588.931
1391.17	587.69
1392.13	587.207
1393.09	586.774
1394.06	585.855
1395.01	583.079
1395.97	579.562
1396.93	576.508
1397.89	574.08
1398.85	570.724
1399.81	566.391
1400.77	562.414
1401.73	557.239
1402.69	552.244
1403.64	548.078
1404.6	544.992
1405.56	543.225
1406.52	541.463
1407.47	540.08
1408.43	540.613
1409.39	540.906
1410.34	541.233
1411.3	540.858
1412.25	539.962
1413.21	539.972
1414.16	539.374
1415.12	539.005
1416.07	539.743
1417.03	540.327
1417.98	540.397
1418.93	540.697
1419.89	541.063
1420.84	540.581
1421.79	540.062
1422.74	540.711
1423.7	540.914
1424.65	542.066
1425.6	543.142
1426.55	544.729
1427.5	547.153
1428.45	549.156
1429.4	551.413
1430.35	553.389
1431.3	555.283
1432.25	557.621
1433.2	559.178
1434.15	562.523
1435.1	563.774
1436.05	565.657
1437	564.999
1437.95	562.722
1438.89	557.893
1439.84	552.205
1440.79	548.784
1441.74	545.378
1442.68	542.882
1443.63	540.78
1444.58	537.775
1445.52	535.072
1446.47	532.654
1447.41	532.667
1448.36	532.249
1449.3	529.573
1450.25	523.814
1451.19	518.416
1452.14	511.689
1453.08	505.873
1454.03	501.876
1454.97	499.648
1455.91	497.466
1456.85	497.02
1457.8	497.383
1458.74	497.738
1459.68	497.659
1460.62	498.119
1461.57	497.923
1462.51	498.397
1463.45	496.388
1464.39	497.11
1465.33	497.535
1466.27	497.749
1467.21	496.444
1468.15	495.282
1469.09	494.253
1470.03	493.018
1470.97	492.014
1471.9	491.136
1472.84	490.326
1473.78	489.605
1474.72	488.103
1475.66	487.667
1476.59	487.787
1477.53	487.767
1478.47	488.097
1479.4	489.396
1480.34	490.74
1481.28	494.152
1482.21	496.517
1483.15	499.572
1484.08	501.448
1485.02	503.27
1485.95	504.855
1486.89	505.613
1487.82	505.461
1488.76	504.175
1489.69	502.249
1490.62	497.841
1491.56	494.784
1492.49	491.914
1493.42	488.751
1494.35	485.099
1495.29	481.412
1496.22	478.177
1497.15	475.656
1498.08	478.706
1499.01	479.311
1499.94	479.237
1500.87	479.617
1501.8	479.948
1502.73	481.418
1503.66	482.66
1504.59	484.099
1505.52	484.639
1506.45	485.727
1507.38	486.626
1508.31	488.205
1509.23	492.387
1510.16	494.838
1511.09	501.235
1512.02	509.734
1512.94	521.54
1513.87	532.717
1514.8	548.054
1515.72	563.247
1516.65	578.886
1517.58	595.995
1518.5	612.929
1519.43	630.354
1520.35	645.631
1521.28	658.652
1522.2	671.356
1523.12	679.92
1524.05	685.154
1524.97	689.468
1525.9	689.878
1526.82	688.539
1527.74	683.407
1528.66	678.399
1529.59	670.383
1530.51	660.316
1531.43	647.612
1532.35	636.248
1533.27	623.579
1534.19	610.81
1535.11	598.387
1536.04	586.039
1536.96	574.528
1537.88	562.452
1538.8	549.989
1539.71	538.56
1540.63	527.051
1541.55	513.352
1542.47	505.187
1543.39	498.362
1544.31	493.86
1545.23	490.754
1546.14	489.041
1547.06	488.39
1547.98	489.038
1548.89	490.841
1549.81	491.409
1550.73	491.395
1551.64	490.708
1552.56	488.891
1553.47	486.378
1554.39	482.334
1555.31	477.032
1556.22	467.627
1557.13	460.568
1558.05	454.099
1558.96	447.822
1559.88	441.914
1560.79	436.347
1561.7	431.566
1562.62	427.455
1563.53	424.487
1564.44	423.762
1565.35	421.639
1566.27	419.836
1567.18	418.779
1568.09	417.06
1569	415.538
1569.91	414.505
1570.82	412.89
1571.73	411.323
1572.64	410.079
1573.55	408.413
1574.46	406.81
1575.37	405.039
1576.28	403.683
1577.19	402.71
1578.1	402.104
1579	401.647
1579.91	401.106
1580.82	401.202
1581.73	401.777
1582.63	401.973
1583.54	402.279
1584.45	402.228
1585.35	401.65
1586.26	401.64
1587.17	401.582
1588.07	401.358
1588.98	401.079
1589.88	401.07
1590.79	401.378
1591.69	401.977
1592.6	402.977
1593.5	403.276
1594.4	403.863
1595.31	404.237
1596.21	405.585
1597.11	406.881
1598.02	408.472
1598.92	411.115
1599.82	414.296
1600.72	417.62
1601.63	420.043
1602.53	421.824
1603.43	423.242
1604.33	424.348
1605.23	424.946
1606.13	424.62
1607.03	424.441
1607.93	424.216
1608.83	423.958
1609.73	423.348
1610.63	422.371
1611.53	421.467
1612.43	419.87
1613.32	417.943
1614.22	416.173
1615.12	414.414
1616.02	412.597
1616.92	411.203
1617.81	409.77
1618.71	408.248
1619.61	407.15
1620.5	406.152
1621.4	405.282
1622.29	404.515
1623.19	403.96
1624.08	403.517
1624.98	403.107
1625.87	402.719
1626.77	402.369
1627.66	401.976
1628.56	401.622
1629.45	401.479
1630.34	401.456
1631.24	401.396
1632.13	401.487
1632.84	401.493
1633.77	401.308
1634.7	401.129
1635.63	401.116
1636.56	400.805
1637.49	400.512
1638.42	400.194
1639.34	398.942
1640.27	398.896
1641.2	399.226
1642.13	399.546
1643.05	399.835
1643.98	399.841
1644.91	399.869
1645.83	399.929
1646.76	399.894
1647.68	399.756
1648.61	399.826
1649.54	399.945
1650.46	399.803
1651.39	399.394
1652.31	398.751
1653.23	397.316
1654.16	396.064
1655.08	394.669
1656.01	393.123
1656.93	391.602
1657.85	390.155
1658.78	389.035
1659.7	389.122
1660.62	390.319
1661.54	390.972
1662.47	391.517
1663.39	391.302
1664.31	390.095
1665.23	388.76
1666.15	388.057
1667.07	387.939
1667.99	387.964
1668.92	387.947
1669.84	387.554
1670.76	386.501
1671.68	385.094
1672.6	382.989
1673.52	381.578
1674.43	380.539
1675.35	380.079
1676.27	379.936
1677.19	380.712
1678.11	380.995
1679.03	381.063
1679.95	380.482
1680.86	379.655
1681.78	378.662
1682.7	377.623
1683.61	376.45
1684.53	375.266
1685.45	374.135
1686.36	372.767
1687.28	371.236
1688.2	369.433
1689.11	367.582
1690.03	365.734
1690.94	363.953
1691.86	362.01
1692.77	360.675
1693.69	359.872
1694.6	359.076
1695.52	358.319
1696.43	357.497
1697.34	356.853
1698.26	355.99
1699.17	355.031
1700.08	353.851
1700.99	352.857
1701.91	351.897
1702.82	350.99
1703.73	350.179
1704.64	349.403
1705.55	348.69
1706.47	348.082
1707.38	347.783
1708.29	347.556
1709.2	347.412
1710.11	347.421
1711.02	347.507
1711.93	347.551
1712.84	347.516
1713.75	346.757
1714.66	345.724
1715.57	343.757
1716.48	341.752
1717.39	339.754
1718.29	337.955
1719.2	336.407
1720.11	335.127
1721.02	334.078
1721.93	333.17
1722.83	332.514
1723.74	332.134
1724.65	331.954
1725.55	331.956
1726.46	332.216
1727.37	332.513
1728.27	332.766
1729.18	333.107
1730.08	332.154
1730.99	330.941
1731.89	329.545
1732.8	328.226
1733.7	327.111
1734.61	326.096
1735.51	325.153
1736.42	324.395
1737.32	323.834
1738.22	323.415
1739.13	323.28
1740.03	323.232
1740.93	323.686
1741.83	324.39
1742.74	325.576
1743.64	326.759
1744.54	328.027
1745.44	329.245
1746.34	330.03
1747.24	330.766
1748.15	331.236
1749.05	331.54
1749.95	331.651
1750.85	331.683
1751.75	331.732
1752.65	331.661
1753.55	331.512
1754.45	331.155
1755.35	330.445
1756.25	329.5
1757.14	328.245
1758.04	326.171
1758.94	324.307
1759.84	322.645
1760.74	320.604
1761.63	317.849
1762.53	314.982
1763.43	313.422
1764.33	312.092
1765.22	310.577
1766.12	309.449
1767.02	310.057
1767.91	311.471
1768.81	314.399
1769.7	317.046
1770.6	318.825
1771.49	319.3
1772.39	317.945
1773.28	312.706
1774.18	314.413
1775.07	313.816
1775.97	312.667
1776.86	311.034
1777.75	309.606
1778.65	308.352
1779.54	307.267
1780.43	306.681
1781.33	306.4
1782.22	306.167
1783.11	305.977
1784	306.157
1784.89	306.38
1785.79	306.635
1786.68	306.819
1787.57	306.894
1788.46	306.879
1789.35	306.48
1790.24	306.178
1791.13	305.642
1792.02	304.796
1792.91	303.582
1793.8	302.086
1794.69	299.694
1795.58	297.205
1796.47	294.34
1797.36	291.27
1798.25	287.795
1799.13	284.169
