Acq. time (s)=	15
Accumulations=	2
Range (cm-¹)=	600...1800
Windows=	2
Autofocus=	Off
AutoExposure=	On
Spike filter=	Multiple accum.
Delay time (s)=	1
Binning=	1
Readout mode=	Signal
DeNoise=	Standard
ICS correction=	Off
Dark correction=	Off
Inst. Process=	Off
Instrument=	XploRA
Detector=	Syncerity
Objective=	x20LWD
Grating=	1200 gr/mm
Filter=	25%
Laser (nm)=	785 
Slit (µm)=	100 
Hole (µm)=	300 
Laser pol=	None
Raman pol=	None
Output=	Camera
StageXY=	Marzhauser
StageZ=	
X (µm)=	2596.6
Y (µm)=	-93.6
Project=	
Sample=	
Site=	
Title=	To2-T
Remark=	
Date=	14.10.2022 19:09
Acquired=	14.10.2022 19:09:56
600.787	1568.55
601.956	1583.81
603.126	1596.03
604.294	1607.65
605.463	1622.71
606.631	1637.98
607.8	1650.12
608.967	1661.75
610.135	1672.7
611.302	1683.12
612.468	1693.11
613.635	1702.57
614.802	1711.58
615.968	1719.93
617.133	1728.34
618.299	1733.99
619.464	1737.78
620.629	1742.88
621.793	1746.78
622.958	1751.66
624.121	1754.25
625.285	1755.34
626.448	1757.64
627.612	1761.69
628.774	1766.41
629.937	1770.83
631.099	1773.76
632.261	1778.08
633.423	1782.12
634.584	1784.22
635.745	1784.52
636.906	1782.93
638.066	1783.5
639.227	1783.27
640.386	1782.66
641.546	1782.17
642.705	1780.11
643.864	1779.36
645.023	1776.72
646.181	1775.96
647.339	1774.52
648.497	1774.49
649.655	1776.25
650.812	1779.49
651.969	1782.64
653.125	1785.64
654.282	1787.9
655.438	1789.53
656.593	1790.66
657.75	1789.18
658.905	1789.67
660.059	1790.8
661.214	1793.73
662.368	1797.46
663.522	1800.77
664.676	1805.18
665.83	1809.69
666.983	1812.62
668.136	1816.49
669.288	1817.99
670.441	1819.03
671.592	1820.85
672.744	1822.65
673.895	1824.01
675.046	1825.04
676.197	1824.96
677.348	1824.31
678.498	1823.22
679.648	1822.15
680.798	1821.24
681.947	1820.45
683.096	1820.31
684.245	1820.55
685.394	1821.52
686.542	1822.73
687.69	1821.43
688.837	1818.76
689.984	1816.85
691.132	1815.47
692.278	1816.06
693.425	1818.44
694.571	1821.24
695.717	1825.05
696.863	1829.38
698.008	1832.04
699.152	1832.71
700.298	1829.71
701.442	1824.62
702.586	1818.8
703.73	1812.63
704.873	1808.86
706.017	1805.71
707.16	1802.76
708.302	1799.77
709.445	1796.81
710.586	1793.44
711.729	1790.36
712.87	1787.47
714.012	1784.88
715.152	1782.57
716.293	1780.7
717.433	1779.27
718.573	1778.39
719.713	1778.01
720.853	1778.66
721.991	1776.62
723.131	1773.67
724.269	1770.02
725.408	1766.48
726.545	1763.22
727.683	1757.74
728.821	1752.11
729.958	1745.84
731.095	1743.12
732.231	1743.58
733.368	1752.33
734.503	1763.01
735.639	1772.52
736.775	1782.56
737.91	1793.03
739.045	1803.29
740.179	1810.5
741.313	1818.3
742.447	1826.21
743.581	1832.52
744.714	1837.17
745.847	1837.7
746.98	1836.14
748.113	1834.18
749.245	1831.93
750.377	1827.84
751.509	1818.34
752.64	1806.64
753.771	1795.25
754.902	1782.98
756.033	1771.98
757.163	1761.08
758.293	1749.12
759.423	1738.78
760.551	1729.4
761.681	1719.15
762.81	1709.6
763.938	1701.08
765.066	1693.56
766.194	1686.66
767.321	1680.56
768.449	1674.95
769.576	1668.97
770.703	1660.24
771.83	1653.3
772.955	1648.35
774.081	1642.76
775.207	1638.25
776.332	1634.23
777.457	1629.85
778.582	1626.99
779.707	1623.19
780.831	1619.38
781.954	1615.51
783.078	1608.96
784.201	1602.82
785.324	1597.32
786.447	1593.82
787.569	1589.42
788.691	1579.28
789.813	1574.71
790.935	1572.39
792.056	1572.95
793.177	1573.23
794.297	1573.21
795.418	1571.88
796.539	1567.05
797.658	1562
798.777	1556.25
799.897	1545.45
801.016	1537.62
802.134	1532.22
803.253	1527.83
804.371	1523.61
805.489	1519.86
806.606	1515.97
807.723	1514
808.84	1509.2
809.957	1504.56
811.073	1500.23
812.19	1496.33
813.305	1492.87
814.421	1489.92
815.536	1487.57
816.651	1485.89
817.766	1484.45
818.88	1485.01
819.994	1486.01
821.108	1487.25
822.221	1488.59
823.335	1490.05
824.448	1490.94
825.56	1491.31
826.673	1491.44
827.784	1490.76
828.897	1487.36
830.008	1483.83
831.119	1478.66
832.23	1474.97
833.341	1472.01
834.451	1469.41
835.561	1467.07
836.671	1465.89
837.78	1465.62
838.89	1466.78
839.998	1468.61
841.108	1470.22
842.216	1469.67
843.324	1466.32
844.431	1463.03
845.539	1458.9
846.646	1454.44
847.753	1449.86
848.859	1445.28
849.966	1441.03
851.071	1436.77
852.178	1433.25
853.283	1429.27
854.388	1425.06
855.494	1420.88
856.598	1416.3
857.703	1411.78
858.806	1407.23
859.91	1402.94
861.014	1397.57
862.116	1392.34
863.22	1387.55
864.322	1384.16
865.425	1381.31
866.527	1378.95
867.628	1377.05
868.73	1375.87
869.831	1375.24
870.932	1371.13
872.032	1364.95
873.133	1360.92
874.233	1356.84
875.333	1355.92
876.432	1355.94
877.532	1356.8
878.631	1356.86
879.729	1358.51
880.828	1356.83
881.926	1352.71
883.023	1349.28
884.121	1346.02
885.218	1343.02
886.315	1340.54
887.412	1338.64
888.508	1337.32
889.604	1336.3
890.699	1335.4
891.795	1330.68
892.89	1327.48
893.985	1323.98
895.08	1321.59
896.174	1320.24
897.268	1318.7
898.362	1317.73
899.456	1317.76
900.549	1318.62
901.642	1320.44
902.734	1320.56
903.827	1320.33
904.919	1321.21
906.011	1324.1
907.102	1323.82
908.193	1324.21
909.284	1324.97
910.375	1327.57
911.465	1330.45
912.555	1327.35
913.645	1334.96
914.734	1336.71
915.824	1345.69
916.913	1350.12
918.001	1344.69
919.09	1337.69
920.177	1329.46
921.266	1320.07
922.353	1310.22
923.44	1299.58
924.527	1288.89
925.614	1278.41
926.7	1267.44
927.786	1257.45
928.873	1248.8
929.958	1242.28
931.043	1236.89
932.128	1233.04
933.213	1230.24
934.297	1229.8
935.381	1229.81
936.465	1228.76
937.549	1228.99
938.632	1228.67
939.715	1224.29
940.798	1216.76
941.881	1210.2
942.962	1204.67
944.044	1200.05
945.125	1195.23
946.207	1191.02
947.288	1187.37
948.368	1180.57
949.449	1174.5
950.529	1169.56
951.61	1166.46
952.689	1164.45
953.769	1163.43
954.847	1163.16
955.926	1163.91
957.004	1165.64
958.082	1167.94
959.16	1170.52
960.238	1173.56
961.316	1176.33
962.392	1178.44
963.469	1180.14
964.546	1180.89
965.622	1180.37
966.698	1178.95
967.774	1176.01
968.849	1172
969.924	1168.3
970.998	1165.76
972.073	1164.39
973.148	1163.64
974.221	1163.8
975.295	1164.7
976.369	1166.4
977.441	1168.75
978.514	1171.92
979.587	1176.1
980.659	1180.92
981.731	1186.47
982.802	1192.55
983.874	1198.01
984.945	1201.22
986.016	1202.28
987.087	1202.49
988.157	1201.48
989.227	1199.39
990.296	1197.14
991.366	1196.25
992.435	1197.48
993.504	1199.13
994.573	1200.93
995.641	1200.8
996.709	1200.12
997.777	1199.96
998.844	1200.92
999.911	1203.37
1000.98	1205.82
1002.05	1208.25
1003.11	1208.64
1004.18	1204.68
1005.24	1198.62
1006.31	1190.91
1007.37	1180.58
1008.44	1167.61
1009.5	1154.51
1010.57	1141.12
1011.63	1128.05
1012.7	1115.43
1013.76	1102.99
1014.82	1091.94
1015.89	1082.25
1016.95	1078.14
1018.01	1071.59
1019.07	1066.23
1020.13	1064.39
1021.2	1059.92
1022.26	1055.65
1023.32	1051.53
1024.38	1048.49
1025.44	1045.76
1026.5	1043.12
1027.56	1040.39
1028.62	1036.71
1029.68	1031.99
1030.74	1027.73
1031.8	1023.99
1032.85	1021.68
1033.91	1020.25
1034.97	1020.5
1036.03	1022.27
1037.09	1025.06
1038.14	1028.31
1039.2	1031.9
1040.26	1035.18
1041.31	1037.64
1042.37	1039.99
1043.42	1042.35
1044.48	1044.4
1045.53	1045.92
1046.59	1046.43
1047.64	1044.52
1048.7	1042.25
1049.75	1037.78
1050.81	1032.73
1051.86	1027.4
1052.91	1022.94
1053.97	1018.4
1055.02	1015.37
1056.07	1012.89
1057.12	1010.39
1058.17	1007.83
1059.23	1005.04
1060.28	1001.48
1061.33	998.194
1062.38	995.028
1063.43	992.195
1064.48	989.524
1065.53	987.289
1066.58	985.46
1067.63	983.985
1068.68	983.428
1069.72	983.352
1070.77	983.331
1071.82	983.271
1072.87	982.749
1073.92	981.32
1074.96	979.662
1076.01	977.628
1077.06	975.021
1078.1	972.048
1079.15	968.705
1080.2	965.101
1081.24	961.343
1082.29	957.439
1083.33	953.416
1084.38	949.586
1085.42	945.885
1086.47	942.449
1087.51	939.237
1088.55	936.434
1089.6	934.116
1090.64	932.293
1091.68	931.063
1092.73	930.468
1093.77	930.081
1094.81	930.724
1095.85	932.587
1096.89	934.919
1097.93	937.338
1098.98	939.74
1100.02	941.876
1101.06	942.222
1102.1	942.388
1103.14	941.603
1104.18	940.419
1105.21	938.888
1106.25	937.04
1107.29	935.285
1108.33	933.973
1109.37	932.628
1110.41	931.108
1111.44	929.585
1112.48	927.798
1113.52	925.733
1114.56	923.256
1115.59	920.051
1116.63	916.37
1117.66	912.29
1118.7	907.806
1119.73	903.462
1120.77	899.317
1121.8	895.824
1122.84	893.898
1123.87	892.957
1124.91	892.81
1125.94	893.343
1126.97	894.493
1128.01	895.313
1129.04	896.014
1130.07	897.265
1131.11	899.121
1132.14	901.629
1133.17	905.023
1134.2	909.756
1135.23	915.243
1136.26	921.59
1137.29	928.315
1138.32	937.045
1139.35	946.091
1140.38	955.35
1141.41	963.21
1142.44	970.621
1143.47	977.617
1144.5	983.789
1145.53	989.543
1146.56	994.579
1147.58	998.744
1148.61	991.149
1149.64	989.276
1150.67	995.009
1151.69	1001.66
1152.72	1017.89
1153.75	1052.44
1154.77	1067.17
1155.8	1078.54
1156.82	1086.62
1157.85	1092.76
1158.87	1093.92
1159.9	1084.72
1160.92	1066.86
1161.95	1019.85
1162.97	985.694
1163.99	956.681
1165.02	931.903
1166.04	912.183
1167.06	897.187
1168.08	887.749
1169.11	882.458
1170.13	872.856
1171.15	859.196
1172.17	865.124
1173.19	867.474
1174.21	871.74
1175.23	878.081
1176.25	885.448
1177.27	894.092
1178.29	903.558
1179.31	913.462
1180.33	924.161
1181.35	934.425
1182.37	943.026
1183.39	948.933
1184.4	950.292
1185.42	955.065
1186.44	956.872
1187.46	955.442
1188.47	949.169
1189.49	940.907
1190.51	930.727
1191.52	918.866
1192.54	905.879
1193.55	892.334
1194.57	878.286
1195.58	865.143
1196.6	851.631
1197.61	838.742
1198.63	827.064
1199.64	818.029
1200.65	812.141
1201.67	809.421
1202.68	808.88
1203.69	809.68
1204.7	810.349
1205.72	812.005
1206.73	815.494
1207.74	819.51
1208.75	823.712
1209.76	827.716
1210.77	830.653
1211.78	833.327
1212.79	835.01
1213.8	836.448
1214.81	837.474
1215.82	838.636
1216.83	840.356
1217.84	842.865
1218.85	845.258
1219.86	847.298
1220.87	848.818
1221.87	849.411
1222.88	849.519
1223.89	848.709
1224.9	847.257
1225.9	844.963
1226.91	841.563
1227.92	836.883
1228.92	831.431
1229.93	825.23
1230.93	818.749
1231.94	812.196
1232.94	805.971
1233.95	799.577
1234.95	792.986
1235.95	786.043
1236.96	779.067
1237.96	771.989
1238.96	764.834
1239.97	757.732
1240.97	750.832
1241.97	744.136
1242.97	737.283
1243.98	731.079
1244.98	725.642
1245.98	721.215
1246.98	718.139
1247.98	716.525
1248.98	716.003
1249.98	716.602
1250.98	717.762
1251.98	720.001
1252.98	722.881
1253.98	725.693
1254.98	728.309
1255.98	730.582
1256.97	732.382
1257.97	733.308
1258.97	733.63
1259.97	733.347
1260.97	732.66
1261.96	731.739
1262.96	730.533
1263.95	728.966
1264.95	727.268
1265.95	725.24
1266.94	722.858
1267.94	720.132
1268.93	716.615
1269.93	712.645
1270.92	708.28
1271.92	704.02
1272.91	699.922
1273.9	696.343
1274.9	693.8
1275.89	691.97
1276.88	690.739
1277.87	689.916
1278.87	690.083
1279.86	690.804
1280.85	692.495
1281.84	695.231
1282.83	700.741
1283.82	708.29
1284.81	716.881
1285.81	725.783
1286.8	732.241
1287.79	733.972
1288.77	733.162
1289.76	729.677
1290.75	708.388
1291.74	698.66
1292.73	691.282
1293.72	683.572
1294.71	678.465
1295.69	677.8
1296.68	678.034
1297.67	678.254
1298.65	677.401
1299.64	674.833
1300.63	673.044
1301.61	673.986
1302.6	673.51
1303.58	668.874
1304.57	661.482
1305.55	648.167
1306.54	646.477
1307.52	656.542
1308.51	664.73
1309.49	663.955
1310.48	661.422
1311.46	658.639
1312.44	655.807
1313.42	653.556
1314.41	651.333
1315.39	649.767
1316.37	647.528
1317.35	646.445
1318.33	647.685
1319.32	652.612
1320.3	658.917
1321.28	667.065
1322.26	676.51
1323.24	687.568
1324.22	700.168
1325.2	713.835
1326.18	729.735
1327.15	743.219
1328.13	749.194
1329.11	749.98
1330.09	745.083
1331.07	729.08
1332.05	710.847
1333.02	686.669
1334	670.076
1334.98	656.555
1335.95	647.934
1336.93	639.421
1337.91	640.842
1338.88	635.259
1339.86	630.476
1340.83	626.476
1341.81	623.242
1342.78	620.849
1343.76	618.92
1344.73	617.476
1345.7	616.703
1346.68	616.214
1347.65	616.079
1348.62	616.072
1349.6	616.173
1350.57	616.165
1351.54	615.814
1352.51	614.765
1353.49	613.329
1354.46	611.507
1355.43	608.893
1356.4	605.455
1357.37	601.248
1358.34	596.223
1359.31	590.74
1360.28	585.34
1361.25	580.314
1362.22	576.17
1363.19	572.652
1364.16	569.84
1365.12	567.667
1366.09	566.081
1367.06	565.308
1368.03	564.962
1369	565.557
1369.96	566.764
1370.93	568.491
1371.9	570.61
1372.86	572.772
1373.83	574.878
1374.79	576.68
1375.76	578.087
1376.73	578.906
1377.69	579.706
1378.66	580.052
1379.62	580.037
1380.58	579.737
1381.55	578.581
1382.51	577.216
1383.48	574.869
1384.44	571.744
1385.4	568.287
1386.36	564.736
1387.33	561.108
1388.29	557.843
1389.25	554.925
1390.21	552.262
1391.17	550.498
1392.13	548.886
1393.09	547.896
1394.06	547.454
1395.01	547.472
1395.97	548.127
1396.93	549.208
1397.89	550.259
1398.85	551.154
1399.81	551.299
1400.77	550.575
1401.73	549.187
1402.69	547.01
1403.64	544.092
1404.6	540.636
1405.56	536.385
1406.52	531.765
1407.47	527.123
1408.43	522.953
1409.39	519.48
1410.34	516.626
1411.3	514.363
1412.25	512.831
1413.21	512.009
1414.16	511.826
1415.12	512.72
1416.07	514.141
1417.03	515.821
1417.98	517.638
1418.93	519.2
1419.89	520.025
1420.84	520.651
1421.79	521.169
1422.74	521.735
1423.7	522.202
1424.65	522.614
1425.6	523.03
1426.55	523.477
1427.5	524.056
1428.45	524.942
1429.4	526.403
1430.35	528.009
1431.3	530.47
1432.25	533.262
1433.2	536.66
1434.15	540.224
1435.1	543.679
1436.05	546.718
1437	549.064
1437.95	550.553
1438.89	550.731
1439.84	550.264
1440.79	549.191
1441.74	547.525
1442.68	545.219
1443.63	542.531
1444.58	539.314
1445.52	535.965
1446.47	532.474
1447.41	529.013
1448.36	525.738
1449.3	522.734
1450.25	520.058
1451.19	517.665
1452.14	515.522
1453.08	513.59
1454.03	511.68
1454.97	509.684
1455.91	507.22
1456.85	504.623
1457.8	501.907
1458.74	499.15
1459.68	496.447
1460.62	494.169
1461.57	492.132
1462.51	490.327
1463.45	488.728
1464.39	487.137
1465.33	485.63
1466.27	484.173
1467.21	482.678
1468.15	481.067
1469.09	479.607
1470.03	478.058
1470.97	476.661
1471.9	475.359
1472.84	474.242
1473.78	473.386
1474.72	472.951
1475.66	472.912
1476.59	473.052
1477.53	473.25
1478.47	474.098
1479.4	475.221
1480.34	476.477
1481.28	477.889
1482.21	479.392
1483.15	480.685
1484.08	482.075
1485.02	483.449
1485.95	484.74
1486.89	485.873
1487.82	487.165
1488.76	488.344
1489.69	489.713
1490.62	490.95
1491.56	492.182
1492.49	493.208
1493.42	493.622
1494.35	491.443
1495.29	485.81
1496.22	482.068
1497.15	478.337
1498.08	474.854
1499.01	471.591
1499.94	468.501
1500.87	465.961
1501.8	464.134
1502.73	463.163
1503.66	462.912
1504.59	463.912
1505.52	465.471
1506.45	468.219
1507.38	471.783
1508.31	476.438
1509.23	481.861
1510.16	488.166
1511.09	495.209
1512.02	503.059
1512.94	511.198
1513.87	518.51
1514.8	527.492
1515.72	539.781
1516.65	554.599
1517.58	571.356
1518.5	589.611
1519.43	608.832
1520.35	629.236
1521.28	649.402
1522.2	668.116
1523.12	683.779
1524.05	696.608
1524.97	707.988
1525.9	715.142
1526.82	718.353
1527.74	717.174
1528.66	706.023
1529.59	696.469
1530.51	685.276
1531.43	672.663
1532.35	658.384
1533.27	642.624
1534.19	625.864
1535.11	609.098
1536.04	592.811
1536.96	577.272
1537.88	562.308
1538.8	548.006
1539.71	534.818
1540.63	523.137
1541.55	512.853
1542.47	503.943
1543.39	496.715
1544.31	491.066
1545.23	487.091
1546.14	484.999
1547.06	484.076
1547.98	484.789
1548.89	486.025
1549.81	487.327
1550.73	487.482
1551.64	487.294
1552.56	486.336
1553.47	484.686
1554.39	482.348
1555.31	479.164
1556.22	474.974
1557.13	470.021
1558.05	464.286
1558.96	457.817
1559.88	451.275
1560.79	446.234
1561.7	443.365
1562.62	439.775
1563.53	434.743
1564.44	433.374
1565.35	428.447
1566.27	423.763
1567.18	419.989
1568.09	417.455
1569	415.727
1569.91	414.534
1570.82	414.66
1571.73	415.203
1572.64	416.057
1573.55	417.033
1574.46	417.028
1575.37	416.96
1576.28	417.418
1577.19	418.095
1578.1	418.899
1579	419.509
1579.91	419.894
1580.82	419.749
1581.73	419.233
1582.63	418.537
1583.54	417.694
1584.45	417.171
1585.35	416.784
1586.26	416.462
1587.17	415.776
1588.07	414.928
1588.98	413.919
1589.88	413.851
1590.79	413.775
1591.69	414.099
1592.6	414.771
1593.5	415.615
1594.4	417.132
1595.31	418.962
1596.21	420.661
1597.11	422.624
1598.02	424.748
1598.92	426.627
1599.82	428.603
1600.72	430.713
1601.63	432.762
1602.53	434.679
1603.43	436.526
1604.33	438.006
1605.23	438.939
1606.13	439.473
1607.03	439.855
1607.93	440.297
1608.83	440.8
1609.73	440.633
1610.63	440.49
1611.53	439.967
1612.43	439.525
1613.32	439.275
1614.22	438.233
1615.12	436.961
1616.02	435.063
1616.92	432.398
1617.81	429.48
1618.71	426.335
1619.61	423.319
1620.5	420.521
1621.4	417.941
1622.29	416.634
1623.19	416.287
1624.08	416.442
1624.98	417.263
1625.87	418.136
1626.77	418.942
1627.66	419.537
1628.56	419.863
1629.45	420.292
1630.34	420.873
1631.24	421.381
1632.13	421.07
1632.84	420.688
1633.77	418.893
1634.7	416.035
1635.63	412.94
1636.56	410.023
1637.49	408.077
1638.42	407.466
1639.34	407.264
1640.27	406.298
1641.2	406.558
1642.13	407.131
1643.05	407.432
1643.98	408.565
1644.91	409.377
1645.83	409.828
1646.76	409.843
1647.68	410.142
1648.61	409.731
1649.54	408.864
1650.46	408.606
1651.39	408.177
1652.31	406.923
1653.23	405.129
1654.16	402.799
1655.08	401.15
1656.01	399.518
1656.93	399.429
1657.85	399.725
1658.78	399.316
1659.7	399.446
1660.62	399.17
1661.54	398.784
1662.47	397.876
1663.39	397.132
1664.31	395.827
1665.23	395.051
1666.15	394.965
1667.07	395.081
1667.99	395.297
1668.92	396.093
1669.84	397.102
1670.76	397.877
1671.68	397.781
1672.6	397.122
1673.52	396.735
1674.43	396.492
1675.35	396.133
1676.27	395.373
1677.19	394.972
1678.11	394.358
1679.03	393.826
1679.95	392.951
1680.86	391.754
1681.78	390.049
1682.7	387.679
1683.61	386.314
1684.53	385.257
1685.45	384.24
1686.36	382.783
1687.28	382.508
1688.2	381.4
1689.11	380.446
1690.03	378.764
1690.94	376.82
1691.86	374.941
1692.77	372.862
1693.69	371.36
1694.6	370.316
1695.52	368.756
1696.43	368.278
1697.34	367.729
1698.26	366.913
1699.17	366.622
1700.08	365.633
1700.99	364.668
1701.91	364.115
1702.82	364.142
1703.73	364.046
1704.64	363.597
1705.55	363.237
1706.47	362.371
1707.38	361.171
1708.29	359.985
1709.2	359.89
1710.11	359.271
1711.02	358.239
1711.93	357.112
1712.84	356.334
1713.75	355.823
1714.66	355.42
1715.57	355.365
1716.48	354.59
1717.39	353.595
1718.29	353.34
1719.2	353.501
1720.11	353.782
1721.02	354.359
1721.93	354.411
1722.83	353.74
1723.74	353.37
1724.65	353.203
1725.55	352.791
1726.46	352.01
1727.37	350.892
1728.27	349.214
1729.18	347.154
1730.08	344.686
1730.99	343.472
1731.89	341.73
1732.8	340.581
1733.7	339.84
1734.61	339.084
1735.51	338.516
1736.42	338.084
1737.32	338.258
1738.22	338.515
1739.13	338.873
1740.03	339.717
1740.93	341.3
1741.83	342.873
1742.74	343.982
1743.64	344.189
1744.54	343.561
1745.44	342.506
1746.34	341.427
1747.24	339.851
1748.15	338.752
1749.05	338.059
1749.95	337.166
1750.85	336.027
1751.75	335.408
1752.65	335.358
1753.55	335.13
1754.45	334.637
1755.35	334.406
1756.25	333.665
1757.14	332.752
1758.04	332.139
1758.94	330.435
1759.84	328.522
1760.74	326.299
1761.63	323.435
1762.53	321.046
1763.43	319.766
1764.33	318.818
1765.22	317.342
1766.12	315.929
1767.02	315.924
1767.91	316.297
1768.81	317.605
1769.7	319.862
1770.6	322.336
1771.49	324.248
1772.39	325.904
1773.28	327.203
1774.18	327.361
1775.07	326.932
1775.97	326.925
1776.86	326.383
1777.75	325.595
1778.65	322.654
1779.54	321.536
1780.43	320.509
1781.33	318.335
1782.22	316.792
1783.11	315.386
1784	313.394
1784.89	312.18
1785.79	311.436
1786.68	310.891
1787.57	310.648
1788.46	310.36
1789.35	309.475
1790.24	308.557
1791.13	307.9
1792.02	306.235
1792.91	304.901
1793.8	304.115
1794.69	303.915
1795.58	302.952
1796.47	302.285
1797.36	303.69
1798.25	306.839
1799.13	310.101
