Acq. time (s)=	15
Accumulations=	2
Range (cm-¹)=	600...1800
Windows=	2
Autofocus=	Off
AutoExposure=	On
Spike filter=	Multiple accum.
Delay time (s)=	1
Binning=	1
Readout mode=	Signal
DeNoise=	Standard
ICS correction=	Off
Dark correction=	Off
Inst. Process=	Off
Instrument=	XploRA
Detector=	Syncerity
Objective=	x20LWD
Grating=	1200 gr/mm
Filter=	25%
Laser (nm)=	785 
Slit (µm)=	100 
Hole (µm)=	300 
Laser pol=	None
Raman pol=	None
Output=	Camera
StageXY=	Marzhauser
StageZ=	
X (µm)=	-3196.9
Y (µm)=	-1252.5
Project=	
Sample=	
Site=	
Title=	To6-T
Remark=	
Date=	14.10.2022 21:32
Acquired=	14.10.2022 21:32:23
600.787	273.13
601.956	278.632
603.126	283.764
604.294	286.978
605.463	288.231
606.631	289.637
607.8	289.649
608.967	289.476
610.135	289.279
611.302	289.747
612.468	290.848
613.635	292.184
614.802	293.719
615.968	295.486
617.133	297.349
618.299	299.419
619.464	301.36
620.629	303.529
621.793	305.772
622.958	307.945
624.121	310.065
625.285	311.958
626.448	313.329
627.612	313.882
628.774	314.665
629.937	315.475
631.099	316.678
632.261	314.268
633.423	318.99
634.584	319.86
635.745	320.495
636.906	320.814
638.066	320.426
639.227	319.845
640.386	319.262
641.546	318.667
642.705	318.322
643.864	318.321
645.023	318.49
646.181	318.699
647.339	318.875
648.497	319.313
649.655	319.652
650.812	321.36
651.969	321.955
653.125	321.082
654.282	320.416
655.438	320.108
656.593	320.358
657.75	320.768
658.905	321.621
660.059	322.82
661.214	324.491
662.368	326.707
663.522	329.185
664.676	330.676
665.83	329.715
666.983	328.472
668.136	326.979
669.288	325.19
670.441	323.329
671.592	321.594
672.744	320.68
673.895	320.164
675.046	320.368
676.197	321.196
677.348	322.176
678.498	323.334
679.648	324.164
680.798	325.103
681.947	325.372
683.096	325.438
684.245	325.264
685.394	325.021
686.542	324.8
687.69	324.858
688.837	324.994
689.984	325.08
691.132	325.299
692.278	325.558
693.425	325.676
694.571	326.741
695.717	327.908
696.863	329.264
698.008	330.342
699.152	331.031
700.298	331.39
701.442	331.443
702.586	331.224
703.73	330.678
704.873	329.915
706.017	328.808
707.16	327.597
708.302	325.793
709.445	323.791
710.586	321.663
711.729	319.489
712.87	317.355
714.012	315.913
715.152	314.843
716.293	313.802
717.433	312.982
718.573	312.43
719.713	312.15
720.853	312.253
721.991	312.723
723.131	313.546
724.269	315.144
725.408	316.637
726.545	317.62
727.683	317.582
728.821	316.927
729.958	315.867
731.095	314.636
732.231	312.835
733.368	311.755
734.503	311.892
735.639	312.592
736.775	314.425
737.91	316.507
739.045	318.134
740.179	320.902
741.313	323.667
742.447	325.92
743.581	327.223
744.714	327.97
745.847	328.151
746.98	327.502
748.113	326.405
749.245	324.882
750.377	322.917
751.509	320.796
752.64	318.329
753.771	315.827
754.902	313.443
756.033	310.629
757.163	307.945
758.293	305.775
759.423	304.422
760.551	303.866
761.681	303.576
762.81	303.399
763.938	303.342
765.066	303.008
766.194	302.824
767.321	302.648
768.449	302.318
769.576	301.872
770.703	301.421
771.83	300.903
772.955	300.272
774.081	299.461
775.207	298.418
776.332	297.948
777.457	297.859
778.582	297.625
779.707	297.311
780.831	296.872
781.954	296.236
783.078	295.452
784.201	294.568
785.324	293.553
786.447	292.421
787.569	291.195
788.691	289.826
789.813	288.411
790.935	286.761
792.056	285.016
793.177	283.031
794.297	281.019
795.418	279.007
796.539	277.202
797.658	276.871
798.777	276.471
799.897	275.901
801.016	275.251
802.134	274.749
803.253	274.4
804.371	274.433
805.489	274.721
806.606	275.58
807.723	276.384
808.84	277.174
809.957	277.776
811.073	276.656
812.19	275.033
813.305	273.522
814.421	272.636
815.536	272.959
816.651	273.438
817.766	271.952
818.88	271.125
819.994	270.556
821.108	270.178
822.221	270.101
823.335	269.645
824.448	269.303
825.56	268.91
826.673	268.516
827.784	268.073
828.897	267.702
830.008	266.942
831.119	266.26
832.23	265.532
833.341	264.891
834.451	264.388
835.561	264.461
836.671	264.598
837.78	265.052
838.89	265.937
839.998	266.993
841.108	268.162
842.216	269.576
843.324	268.158
844.431	266.726
845.539	266.184
846.646	266.386
847.753	267.675
848.859	269.054
849.966	267.993
851.071	266.072
852.178	264.229
853.283	262.414
854.388	260.637
855.494	258.985
856.598	257.572
857.703	256.215
858.806	254.924
859.91	253.717
861.014	252.62
862.116	251.516
863.22	250.696
864.322	250.022
865.425	249.381
866.527	248.774
867.628	248.116
868.73	246.707
869.831	245.254
870.932	244.111
872.032	243.23
873.133	243.13
874.233	243.372
875.333	243.947
876.432	245.067
877.532	246.205
878.631	247.279
879.729	246.74
880.828	245.68
881.926	244.952
883.023	244.643
884.121	244.408
885.218	244.124
886.315	243.947
887.412	243.577
888.508	243.203
889.604	242.856
890.699	242.218
891.795	242.012
892.89	241.881
893.985	241.762
895.08	241.805
896.174	241.704
897.268	241.637
898.362	241.583
899.456	241.487
900.549	241.006
901.642	240.708
902.734	240.338
903.827	239.947
904.919	239.495
906.011	239.047
907.102	238.526
908.193	238.104
909.284	237.765
910.375	237.529
911.465	236.898
912.555	236.269
913.645	235.65
914.734	235.091
915.824	234.779
916.913	234.794
918.001	234.964
919.09	235.905
920.177	236.048
921.266	235.559
922.353	235.163
923.44	234.819
924.527	234.555
925.614	234.285
926.7	233.963
927.786	233.504
928.873	233.002
929.958	232.229
931.043	231.47
932.128	230.011
933.213	227.673
934.297	225.038
935.381	222.337
936.465	219.738
937.549	218.187
938.632	217.534
939.715	217.311
940.798	217.027
941.881	216.91
942.962	216.628
944.044	216.425
945.125	216.206
946.207	216.104
947.288	215.96
948.368	215.91
949.449	215.962
950.529	216.099
951.61	216.454
952.689	216.365
953.769	215.279
954.847	214.668
955.926	214.76
957.004	215.469
958.082	216.559
959.16	218.124
960.238	219.71
961.316	219.475
962.392	218.661
963.469	217.661
964.546	216.354
965.622	214.84
966.698	213.362
967.774	211.999
968.849	210.761
969.924	209.953
970.998	209.306
972.073	208.93
973.148	208.958
974.221	209.101
975.295	209.719
976.369	210.631
977.441	211.696
978.514	212.716
979.587	213.759
980.659	214.151
981.731	214.424
982.802	214.652
983.874	214.743
984.945	214.811
986.016	214.818
987.087	214.883
988.157	214.856
989.227	214.943
990.296	214.909
991.366	215.057
992.435	215.046
993.504	215.445
994.573	215.782
995.641	216.008
996.709	216.16
997.777	215.912
998.844	215.476
999.911	214.157
1000.98	212.914
1002.05	211.498
1003.11	210.055
1004.18	208.72
1005.24	207.298
1006.31	205.917
1007.37	204.587
1008.44	203.396
1009.5	202.261
1010.57	201.319
1011.63	200.477
1012.7	199.736
1013.76	198.954
1014.82	198.79
1015.89	197.731
1016.95	197.118
1018.01	196.945
1019.07	197.186
1020.13	197.968
1021.2	198.178
1022.26	197.368
1023.32	196.312
1024.38	195.151
1025.44	193.808
1026.5	192.31
1027.56	190.731
1028.62	189.108
1029.68	187.19
1030.74	185.329
1031.8	183.598
1032.85	182.258
1033.91	181.571
1034.97	181.324
1036.03	181.463
1037.09	182.088
1038.14	183.216
1039.2	184.552
1040.26	185.944
1041.31	187.67
1042.37	189.306
1043.42	190.655
1044.48	191.871
1045.53	192.869
1046.59	193.707
1047.64	194.192
1048.7	194.442
1049.75	194.454
1050.81	193.997
1051.86	193.198
1052.91	191.809
1053.97	190.222
1055.02	188.542
1056.07	186.767
1057.12	185.008
1058.17	183.655
1059.23	182.324
1060.28	181.266
1061.33	180.39
1062.38	179.778
1063.43	179.592
1064.48	179.742
1065.53	180.55
1066.58	181.441
1067.63	182.491
1068.68	183.579
1069.72	184.042
1070.77	183.799
1071.82	183.646
1072.87	183.516
1073.92	183.476
1074.96	183.79
1076.01	184.034
1077.06	182.599
1078.1	180.482
1079.15	178.408
1080.2	176.581
1081.24	175.041
1082.29	174.016
1083.33	173.246
1084.38	172.653
1085.42	172.356
1086.47	172.154
1087.51	172.707
1088.55	173.382
1089.6	174.135
1090.64	174.881
1091.68	175.597
1092.73	175.883
1093.77	176.069
1094.81	176.069
1095.85	176.009
1096.89	175.866
1097.93	175.646
1098.98	175.405
1100.02	174.972
1101.06	174.329
1102.1	173.623
1103.14	173.013
1104.18	172.408
1105.21	172.154
1106.25	172.698
1107.29	173.194
1108.33	173.855
1109.37	173.859
1110.41	173.839
1111.44	173.466
1112.48	173.159
1113.52	172.768
1114.56	172.372
1115.59	171.97
1116.63	171.416
1117.66	170.715
1118.7	170.048
1119.73	169.386
1120.77	168.832
1121.8	168.237
1122.84	167.786
1123.87	167.291
1124.91	166.869
1125.94	166.457
1126.97	166.525
1128.01	166.67
1129.04	167.429
1130.07	168.102
1131.11	168.013
1132.14	168.067
1133.17	168.161
1134.2	168.717
1135.23	169.269
1136.26	170.225
1137.29	171.171
1138.32	172.26
1139.35	173.305
1140.38	174.344
1141.41	175.305
1142.44	175.124
1143.47	175.048
1144.5	174.974
1145.53	175.026
1146.56	175.216
1147.58	175.931
1148.61	176.802
1149.64	177.776
1150.67	178.923
1151.69	180.421
1152.72	182.031
1153.75	183.703
1154.77	185.161
1155.8	186.082
1156.82	186.432
1157.85	186.136
1158.87	185.32
1159.9	183.551
1160.92	181.213
1161.95	178.623
1162.97	176.029
1163.99	173.863
1165.02	171.884
1166.04	170.173
1167.06	168.561
1168.08	167.361
1169.11	166.065
1170.13	165.01
1171.15	164.022
1172.17	163.424
1173.19	163.037
1174.21	162.793
1175.23	163.424
1176.25	164.169
1177.27	165.136
1178.29	164.072
1179.31	161.938
1180.33	162.225
1181.35	161.993
1182.37	162.715
1183.39	164.743
1184.4	165.337
1185.42	164.763
1186.44	164.111
1187.46	163.426
1188.47	162.65
1189.49	161.888
1190.51	161.032
1191.52	160.333
1192.54	159.675
1193.55	159.098
1194.57	158.529
1195.58	157.908
1196.6	156.986
1197.61	155.587
1198.63	153.056
1199.64	154.099
1200.65	154.228
1201.67	154.638
1202.68	155.028
1203.69	154.464
1204.7	153.696
1205.72	152.923
1206.73	152.426
1207.74	152.576
1208.75	153.048
1209.76	153.408
1210.77	153.504
1211.78	152.813
1212.79	151.443
1213.8	150.462
1214.81	151.472
1215.82	151.693
1216.83	152.354
1217.84	153.741
1218.85	155.026
1219.86	156.044
1220.87	156.927
1221.87	157.645
1222.88	157.604
1223.89	157.351
1224.9	157.14
1225.9	156.889
1226.91	156.68
1227.92	156.443
1228.92	155.679
1229.93	154.271
1230.93	152.663
1231.94	150.855
1232.94	148.976
1233.95	147.102
1234.95	145.694
1235.95	144.378
1236.96	143.516
1237.96	142.897
1238.96	142.492
1239.97	141.404
1240.97	140.192
1241.97	139.234
1242.97	138.641
1243.98	138.589
1244.98	136.889
1245.98	135.388
1246.98	134.261
1247.98	133.606
1248.98	133.381
1249.98	133.426
1250.98	133.908
1251.98	134.514
1252.98	135.163
1253.98	135.684
1254.98	136.064
1255.98	136.297
1256.97	136.314
1257.97	136.151
1258.97	135.99
1259.97	135.798
1260.97	135.608
1261.96	135.725
1262.96	136.08
1263.95	135.803
1264.95	135.28
1265.95	134.838
1266.94	134.51
1267.94	134.437
1268.93	134.49
1269.93	134.743
1270.92	135.328
1271.92	134.27
1272.91	133.448
1273.9	133.914
1274.9	134.561
1275.89	135.268
1276.88	136.008
1277.87	136.611
1278.87	137.168
1279.86	137.573
1280.85	137.145
1281.84	136.327
1282.83	135.068
1283.82	133.768
1284.81	132.363
1285.81	130.875
1286.8	129.731
1287.79	129.116
1288.77	128.578
1289.76	128.18
1290.75	127.881
1291.74	127.641
1292.73	127.461
1293.72	127.362
1294.71	127.25
1295.69	127.209
1296.68	127.024
1297.67	126.733
1298.65	126.742
1299.64	126.794
1300.63	126.848
1301.61	126.509
1302.6	126.426
1303.58	126.763
1304.57	126.863
1305.55	126.724
1306.54	126.243
1307.52	125.916
1308.51	125.62
1309.49	125.383
1310.48	125.255
1311.46	125.164
1312.44	125.251
1313.42	125.364
1314.41	124.98
1315.39	124.842
1316.37	124.763
1317.35	125.042
1318.33	126.209
1319.32	128.177
1320.3	129.815
1321.28	131.304
1322.26	131.673
1323.24	134.74
1324.22	136.36
1325.2	136.476
1326.18	136.338
1327.15	135.959
1328.13	135.541
1329.11	134.428
1330.09	133.181
1331.07	131.715
1332.05	130.142
1333.02	128.492
1334	127.058
1334.98	125.652
1335.95	124.171
1336.93	122.77
1337.91	121.355
1338.88	120.305
1339.86	119.794
1340.83	119.635
1341.81	119.474
1342.78	119.447
1343.76	119.535
1344.73	119.453
1345.7	119.394
1346.68	119.096
1347.65	118.902
1348.62	118.629
1349.6	118.369
1350.57	118.108
1351.54	117.853
1352.51	117.62
1353.49	117.389
1354.46	117.16
1355.43	116.951
1356.4	116.72
1357.37	116.512
1358.34	116.27
1359.31	115.693
1360.28	115.135
1361.25	114.616
1362.22	114.128
1363.19	113.647
1364.16	113.2
1365.12	112.823
1366.09	112.522
1367.06	112.439
1368.03	109.313
1369	110.092
1369.96	111.603
1370.93	111.952
1371.9	111.898
1372.86	111.871
1373.83	111.868
1374.79	111.9
1375.76	111.938
1376.73	111.699
1377.69	111.169
1378.66	111.632
1379.62	112.085
1380.58	111.408
1381.55	110.334
1382.51	109.225
1383.48	108.887
1384.44	112.074
1385.4	112.045
1386.36	111.91
1387.33	111.762
1388.29	111.605
1389.25	111.556
1390.21	111.195
1391.17	110.826
1392.13	110.422
1393.09	109.981
1394.06	109.545
1395.01	109.084
1395.97	108.708
1396.93	108.469
1397.89	108.273
1398.85	108.342
1399.81	108.558
1400.77	108.256
1401.73	107.648
1402.69	107.437
1403.64	107.218
1404.6	106.541
1405.56	106.103
1406.52	105.965
1407.47	105.472
1408.43	104.469
1409.39	103.071
1410.34	101.681
1411.3	100.327
1412.25	99.2385
1413.21	98.3411
1414.16	97.6896
1415.12	97.3282
1416.07	97.1618
1417.03	98.9617
1417.98	99.7337
1418.93	100.978
1419.89	102.274
1420.84	103.736
1421.79	105.112
1422.74	104.104
1423.7	102.966
1424.65	101.814
1425.6	100.775
1426.55	99.8897
1427.5	100.054
1428.45	100.512
1429.4	101.123
1430.35	101.739
1431.3	102.475
1432.25	103.211
1433.2	103.795
1434.15	104.385
1435.1	104.908
1436.05	105.399
1437	105.788
1437.95	106.146
1438.89	106.391
1439.84	106.604
1440.79	106.739
1441.74	106.832
1442.68	106.838
1443.63	106.826
1444.58	106.56
1445.52	106.056
1446.47	105.536
1447.41	104.819
1448.36	104.117
1449.3	103.403
1450.25	102.686
1451.19	101.959
1452.14	101.259
1453.08	100.924
1454.03	100.19
1454.97	99.5049
1455.91	98.7876
1456.85	98.221
1457.8	97.6432
1458.74	97.4161
1459.68	97.2102
1460.62	97.0879
1461.57	97.2428
1462.51	97.241
1463.45	97.1791
1464.39	97.14
1465.33	96.9338
1466.27	96.3822
1467.21	96.2561
1468.15	95.9042
1469.09	95.4464
1470.03	94.9105
1470.97	94.4102
1471.9	93.8142
1472.84	92.5783
1473.78	91.9528
1474.72	92.1185
1475.66	91.696
1476.59	91.2622
1477.53	91.2258
1478.47	91.3993
1479.4	91.8835
1480.34	92.4795
1481.28	94.6381
1482.21	95.8826
1483.15	96.9302
1484.08	96.8095
1485.02	96.3422
1485.95	95.7761
1486.89	95.1257
1487.82	94.3799
1488.76	93.7165
1489.69	92.7165
1490.62	91.8217
1491.56	90.9059
1492.49	90.0827
1493.42	89.3578
1494.35	88.6894
1495.29	88.9046
1496.22	89.5364
1497.15	90.1647
1498.08	90.7887
1499.01	91.3902
1499.94	92.0383
1500.87	92.3578
1501.8	92.7881
1502.73	93.1829
1503.66	93.5234
1504.59	93.8901
1505.52	94.0986
1506.45	94.3622
1507.38	94.3945
1508.31	94.1495
1509.23	93.9584
1510.16	93.8241
1511.09	93.668
1512.02	93.9896
1512.94	95.3015
1513.87	96.6385
1514.8	98.2354
1515.72	99.9551
1516.65	101.775
1517.58	103.447
1518.5	105.398
1519.43	107.708
1520.35	109.976
1521.28	112.072
1522.2	114.033
1523.12	115.74
1524.05	117.116
1524.97	117.86
1525.9	118.253
1526.82	118.357
1527.74	118.119
1528.66	117.124
1529.59	115.855
1530.51	114.326
1531.43	112.648
1532.35	110.643
1533.27	108.027
1534.19	105.621
1535.11	103.386
1536.04	101.397
1536.96	99.7598
1537.88	98.3314
1538.8	97.3222
1539.71	96.7343
1540.63	96.3609
1541.55	95.8194
1542.47	94.9723
1543.39	94.2472
1544.31	93.7167
1545.23	92.6292
1546.14	92.0721
1547.06	91.782
1547.98	91.6214
1548.89	91.6957
1549.81	92.0361
1550.73	92.2855
1551.64	92.2975
1552.56	92.0384
1553.47	91.5901
1554.39	90.9786
1555.31	90.1726
1556.22	89.1127
1557.13	88.1469
1558.05	87.1314
1558.96	86.3072
1559.88	85.0794
1560.79	83.4063
1561.7	82.0161
1562.62	81.4236
1563.53	81.4794
1564.44	81.2329
1565.35	79.9206
1566.27	78.716
1567.18	78.4956
1568.09	78.2749
1569	78.287
1569.91	78.4647
1570.82	78.8891
1571.73	79.5939
1572.64	80.5752
1573.55	80.5073
1574.46	80.4637
1575.37	80.4615
1576.28	80.3489
1577.19	80.0943
1578.1	79.2534
1579	79.1444
1579.91	79.0137
1580.82	78.9962
1581.73	78.8916
1582.63	78.9619
1583.54	79.2256
1584.45	79.226
1585.35	79.0357
1586.26	77.8982
1587.17	77.7372
1588.07	77.6702
1588.98	77.6871
1589.88	77.7939
1590.79	77.9112
1591.69	77.9248
1592.6	77.8401
1593.5	77.8653
1594.4	77.9277
1595.31	78.067
1596.21	78.2543
1597.11	78.5817
1598.02	78.8854
1598.92	79.1521
1599.82	79.2598
1600.72	78.8215
1601.63	78.4335
1602.53	78.1685
1603.43	78.0409
1604.33	77.9646
1605.23	77.9412
1606.13	77.9735
1607.03	77.9928
1607.93	78.1134
1608.83	77.9716
1609.73	77.8202
1610.63	77.9749
1611.53	78.1731
1612.43	78.4539
1613.32	78.6812
1614.22	78.8814
1615.12	79.0594
1616.02	79.2268
1616.92	79.2662
1617.81	79.2608
1618.71	79.261
1619.61	79.2779
1620.5	79.2579
1621.4	79.237
1622.29	79.1865
1623.19	79.1179
1624.08	78.9575
1624.98	78.7457
1625.87	78.5677
1626.77	78.4736
1627.66	78.3457
1628.56	78.2373
1629.45	78.1273
1630.34	77.9789
1631.24	77.818
1632.13	77.6018
1632.84	77.3935
1633.77	76.9532
1634.7	76.497
1635.63	75.9694
1636.56	75.4369
1637.49	74.8371
1638.42	73.9833
1639.34	73.5224
1640.27	73.0383
1641.2	76.0078
1642.13	76.7087
1643.05	77.109
1643.98	77.4035
1644.91	77.3116
1645.83	76.5753
1646.76	74.5339
1647.68	73.8836
1648.61	73.6104
1649.54	73.4507
1650.46	73.3059
1651.39	73.2218
1652.31	73.1396
1653.23	73.0937
1654.16	73.0632
1655.08	73.0834
1656.01	73.1749
1656.93	72.9795
1657.85	72.7342
1658.78	72.4356
1659.7	72.1645
1660.62	71.7871
1661.54	71.3988
1662.47	71.1086
1663.39	70.8829
1664.31	70.6636
1665.23	70.7385
1666.15	71.164
1667.07	71.4827
1667.99	71.7586
1668.92	71.9895
1669.84	72.1335
1670.76	72.2472
1671.68	72.1916
1672.6	71.7673
1673.52	71.2288
1674.43	70.5021
1675.35	69.6468
1676.27	68.6836
1677.19	67.6285
1678.11	66.3793
1679.03	65.1544
1679.95	64.0113
1680.86	63.6694
1681.78	63.4264
1682.7	63.5731
1683.61	64.0475
1684.53	64.7766
1685.45	65.6971
1686.36	66.5121
1687.28	67.5806
1688.2	68.5788
1689.11	69.4016
1690.03	69.7515
1690.94	69.8247
1691.86	69.7475
1692.77	69.5022
1693.69	69.7314
1694.6	70.0094
1695.52	69.8034
1696.43	69.525
1697.34	69.2696
1698.26	69.0175
1699.17	68.725
1700.08	68.1209
1700.99	67.5636
1701.91	67.1786
1702.82	66.8822
1703.73	66.6373
1704.64	66.4163
1705.55	66.3537
1706.47	65.9205
1707.38	65.4815
1708.29	64.9655
1709.2	64.4785
1710.11	64.0413
1711.02	63.6612
1711.93	63.3858
1712.84	63.1327
1713.75	62.839
1714.66	62.4825
1715.57	62.3325
1716.48	62.193
1717.39	62.1341
1718.29	62.1237
1719.2	62.1195
1720.11	62.1429
1721.02	62.2036
1721.93	62.2746
1722.83	62.3741
1723.74	62.4985
1724.65	62.6401
1725.55	62.8082
1726.46	62.9564
1727.37	63.0869
1728.27	63.2464
1729.18	63.2874
1730.08	63.0596
1730.99	62.915
1731.89	61.958
1732.8	61.0297
1733.7	60.2366
1734.61	60.2966
1735.51	60.3703
1736.42	60.6272
1737.32	60.9903
1738.22	61.3833
1739.13	61.3887
1740.03	61.355
1740.93	61.3028
1741.83	61.3085
1742.74	61.4279
1743.64	61.6983
1744.54	62.3466
1745.44	62.0387
1746.34	61.7296
1747.24	61.4493
1748.15	61.2031
1749.05	61.0142
1749.95	60.8805
1750.85	61.1817
1751.75	61.4567
1752.65	61.8099
1753.55	61.9727
1754.45	62.0785
1755.35	61.3661
1756.25	60.6218
1757.14	59.6948
1758.04	58.6465
1758.94	57.6446
1759.84	56.6183
1760.74	55.9031
1761.63	55.5095
1762.53	55.6357
1763.43	56.0728
1764.33	56.5405
1765.22	57.1087
1766.12	58.0298
1767.02	58.1714
1767.91	58.3122
1768.81	58.5299
1769.7	58.6656
1770.6	58.349
1771.49	57.8821
1772.39	57.702
1773.28	57.501
1774.18	56.9579
1775.07	56.2035
1775.97	55.7451
1776.86	55.4734
1777.75	55.7781
1778.65	56.1325
1779.54	56.4738
1780.43	56.9319
1781.33	57.3812
1782.22	57.8578
1783.11	58.3223
1784	58.7579
1784.89	59.1799
1785.79	59.5312
1786.68	59.8563
1787.57	60.0735
1788.46	60.2256
1789.35	60.2696
1790.24	60.227
1791.13	60.0729
1792.02	59.6642
1792.91	59.2394
1793.8	58.8973
1794.69	58.6545
1795.58	58.4653
1796.47	59.0063
1797.36	59.1673
1798.25	58.8273
1799.13	59.0729
