Acq. time (s)=	15
Accumulations=	2
Range (cm-¹)=	600...1800
Windows=	2
Autofocus=	Off
AutoExposure=	On
Spike filter=	Multiple accum.
Delay time (s)=	1
Binning=	1
Readout mode=	Signal
DeNoise=	Standard
ICS correction=	Off
Dark correction=	Off
Inst. Process=	Off
Instrument=	XploRA
Detector=	Syncerity
Objective=	x20LWD
Grating=	1200 gr/mm
Filter=	25%
Laser (nm)=	785 
Slit (µm)=	100 
Hole (µm)=	300 
Laser pol=	None
Raman pol=	None
Output=	Camera
StageXY=	Marzhauser
StageZ=	
X (µm)=	-8036.8
Y (µm)=	-1440.3
Project=	
Sample=	
Site=	
Title=	To1-T
Remark=	
Date=	14.10.2022 18:46
Acquired=	14.10.2022 18:46:35
600.787	5247.3
601.956	5271.79
603.126	5301.21
604.294	5332.94
605.463	5366.36
606.631	5398.55
607.8	5425.3
608.967	5450.26
610.135	5475.02
611.302	5500.2
612.468	5519.43
613.635	5538.78
614.802	5553.24
615.968	5565.47
617.133	5575.87
618.299	5584.29
619.464	5590.79
620.629	5586.91
621.793	5592.95
622.958	5595.73
624.121	5600.93
625.285	5604.53
626.448	5605.15
627.612	5603.52
628.774	5595.7
629.937	5585.04
631.099	5572.31
632.261	5559.52
633.423	5542.68
634.584	5531.42
635.745	5525.61
636.906	5517.08
638.066	5505.78
639.227	5496.69
640.386	5486.43
641.546	5476.31
642.705	5468.73
643.864	5461.11
645.023	5451.3
646.181	5441.36
647.339	5430.92
648.497	5419.45
649.655	5409.12
650.812	5401.5
651.969	5393.28
653.125	5383.91
654.282	5377.82
655.438	5374.05
656.593	5367.87
657.75	5360.75
658.905	5353.68
660.059	5345.12
661.214	5337.01
662.368	5332.24
663.522	5326.52
664.676	5321.53
665.83	5318.31
666.983	5308.38
668.136	5300.76
669.288	5296.91
670.441	5295.54
671.592	5295.63
672.744	5296.33
673.895	5298.73
675.046	5300.53
676.197	5305.18
677.348	5306.92
678.498	5306.8
679.648	5303.47
680.798	5298.91
681.947	5292.68
683.096	5285.21
684.245	5268.98
685.394	5264.71
686.542	5258.11
687.69	5254.34
688.837	5249.88
689.984	5246.87
691.132	5244.67
692.278	5246.17
693.425	5245.97
694.571	5245.95
695.717	5245.2
696.863	5252.01
698.008	5248.49
699.152	5242.79
700.298	5231.77
701.442	5218.15
702.586	5203.75
703.73	5187.31
704.873	5170.59
706.017	5151.18
707.16	5129.67
708.302	5109.8
709.445	5093.02
710.586	5076.34
711.729	5059.11
712.87	5042.44
714.012	5027.16
715.152	5012.65
716.293	4999.47
717.433	4990.88
718.573	4981.51
719.713	4973.14
720.853	4965.87
721.991	4961.51
723.131	4959.68
724.269	4955.1
725.408	4951.91
726.545	4950.58
727.683	4950.98
728.821	4946.21
729.958	4955.28
731.095	4964.49
732.231	4978.77
733.368	4993.22
734.503	5009.59
735.639	5031.43
736.775	5053.64
737.91	5074.16
739.045	5099.38
740.179	5122.18
741.313	5142.63
742.447	5158.1
743.581	5166.3
744.714	5166.02
745.847	5159.26
746.98	5146.6
748.113	5129.79
749.245	5102.38
750.377	5082.45
751.509	5054.83
752.64	5032.97
753.771	4998.72
754.902	4957.59
756.033	4918.27
757.163	4880.68
758.293	4844.29
759.423	4811.93
760.551	4781.12
761.681	4754.52
762.81	4732.77
763.938	4716.54
765.066	4701.94
766.194	4688.19
767.321	4676.68
768.449	4666.27
769.576	4656.83
770.703	4646.76
771.83	4637.39
772.955	4626.91
774.081	4615
775.207	4601.17
776.332	4586.57
777.457	4569.65
778.582	4552.45
779.707	4530.74
780.831	4507.25
781.954	4483.34
783.078	4460.09
784.201	4437.42
785.324	4417.76
786.447	4400.61
787.569	4388.08
788.691	4377.67
789.813	4368.48
790.935	4364.59
792.056	4360.03
793.177	4353.23
794.297	4349.52
795.418	4346.56
796.539	4344.4
797.658	4336.41
798.777	4327.99
799.897	4320.66
801.016	4312.08
802.134	4300.94
803.253	4293.12
804.371	4286.31
805.489	4275.91
806.606	4261.09
807.723	4246.59
808.84	4231.57
809.957	4208.85
811.073	4194.72
812.19	4185.54
813.305	4180.3
814.421	4177.25
815.536	4176.07
816.651	4177.89
817.766	4182.61
818.88	4183.18
819.994	4185.93
821.108	4187.51
822.221	4183.57
823.335	4179.85
824.448	4175.19
825.56	4170.33
826.673	4161.12
827.784	4151.18
828.897	4140.97
830.008	4127.27
831.119	4117.56
832.23	4108.69
833.341	4099.77
834.451	4092.19
835.561	4087.65
836.671	4081.65
837.78	4075.4
838.89	4069.92
839.998	4063.78
841.108	4057.53
842.216	4051.31
843.324	4047.68
844.431	4043.51
845.539	4035.73
846.646	4027.63
847.753	4019.62
848.859	4013.07
849.966	4009.57
851.071	4009.09
852.178	4003.64
853.283	3998.84
854.388	3993.22
855.494	3986.38
856.598	3981.21
857.703	3975.3
858.806	3965.36
859.91	3955.39
861.014	3945.35
862.116	3936.12
863.22	3924.79
864.322	3912.7
865.425	3898.55
866.527	3885.41
867.628	3869.81
868.73	3856.84
869.831	3845.74
870.932	3832.62
872.032	3820.59
873.133	3810.6
874.233	3798.76
875.333	3791.47
876.432	3789.25
877.532	3786.49
878.631	3783.68
879.729	3781.32
880.828	3779.29
881.926	3785.3
883.023	3782.13
884.121	3780.43
885.218	3774.25
886.315	3765.2
887.412	3751.45
888.508	3737.79
889.604	3725.05
890.699	3716.96
891.795	3710.33
892.89	3702.23
893.985	3696.15
895.08	3691.38
896.174	3689.16
897.268	3690.01
898.362	3692.03
899.456	3692.91
900.549	3696.06
901.642	3699.26
902.734	3700.98
903.827	3704.52
904.919	3703.9
906.011	3706.04
907.102	3712.28
908.193	3723.17
909.284	3731.86
910.375	3740.01
911.465	3751.2
912.555	3760.95
913.645	3768.35
914.734	3771.32
915.824	3771.54
916.913	3764.24
918.001	3754.39
919.09	3740
920.177	3721.93
921.266	3697.52
922.353	3671.74
923.44	3642.14
924.527	3614.42
925.614	3589.07
926.7	3563.07
927.786	3541.96
928.873	3521.17
929.958	3502.34
931.043	3483.37
932.128	3466.78
933.213	3452.01
934.297	3439.36
935.381	3431.66
936.465	3425.37
937.549	3417.04
938.632	3409.31
939.715	3404.3
940.798	3398.83
941.881	3394.32
942.962	3389
944.044	3385.62
945.125	3382.78
946.207	3378.37
947.288	3372.88
948.368	3367.75
949.449	3361.43
950.529	3353.43
951.61	3344.2
952.689	3335.13
953.769	3326.89
954.847	3320.35
955.926	3313.28
957.004	3308.36
958.082	3305.23
959.16	3298.65
960.238	3290.3
961.316	3284.22
962.392	3277.96
963.469	3272.41
964.546	3266.05
965.622	3263.47
966.698	3261.57
967.774	3258.15
968.849	3256.14
969.924	3257.27
970.998	3260.63
972.073	3266.17
973.148	3272.51
974.221	3282.79
975.295	3294.19
976.369	3304.42
977.441	3317.66
978.514	3330.72
979.587	3342.02
980.659	3353.36
981.731	3363.84
982.802	3383.03
983.874	3394.27
984.945	3404.16
986.016	3408.6
987.087	3409.02
988.157	3405.97
989.227	3397.96
990.296	3388.43
991.366	3375.43
992.435	3362.78
993.504	3354.4
994.573	3342.55
995.641	3331.78
996.709	3327.47
997.777	3324.28
998.844	3325.26
999.911	3333.86
1000.98	3333.03
1002.05	3327.29
1003.11	3319.12
1004.18	3308.13
1005.24	3286.45
1006.31	3259.35
1007.37	3237.56
1008.44	3215.28
1009.5	3192.76
1010.57	3165
1011.63	3137.77
1012.7	3110.48
1013.76	3088.31
1014.82	3073.53
1015.89	3057.94
1016.95	3040.35
1018.01	3029.72
1019.07	3017.26
1020.13	3007.11
1021.2	2994.88
1022.26	2982.48
1023.32	2970.83
1024.38	2961.41
1025.44	2949
1026.5	2935.03
1027.56	2922.54
1028.62	2911.68
1029.68	2902.63
1030.74	2895.22
1031.8	2889.61
1032.85	2888.76
1033.91	2888.85
1034.97	2889.86
1036.03	2894.28
1037.09	2896.77
1038.14	2894.58
1039.2	2896.05
1040.26	2897.16
1041.31	2898.53
1042.37	2901.11
1043.42	2903.7
1044.48	2904.37
1045.53	2904.34
1046.59	2901.98
1047.64	2897.1
1048.7	2891.4
1049.75	2882.15
1050.81	2870.14
1051.86	2857.66
1052.91	2846.06
1053.97	2829.98
1055.02	2816.06
1056.07	2804.49
1057.12	2794.73
1058.17	2799.5
1059.23	2791.52
1060.28	2789.59
1061.33	2789.65
1062.38	2790.83
1063.43	2794.63
1064.48	2798.67
1065.53	2801.58
1066.58	2802.88
1067.63	2799.72
1068.68	2798.18
1069.72	2792.12
1070.77	2781.52
1071.82	2770.79
1072.87	2756.43
1073.92	2747.14
1074.96	2737.62
1076.01	2727.39
1077.06	2717.01
1078.1	2706.53
1079.15	2696.7
1080.2	2688.3
1081.24	2686.02
1082.29	2681.36
1083.33	2678.68
1084.38	2671.34
1085.42	2660.89
1086.47	2652.47
1087.51	2643.06
1088.55	2635.61
1089.6	2632.61
1090.64	2626.52
1091.68	2619.1
1092.73	2614.42
1093.77	2610.57
1094.81	2616.57
1095.85	2617.67
1096.89	2616.91
1097.93	2618.45
1098.98	2616.74
1100.02	2618.58
1101.06	2622.34
1102.1	2627.58
1103.14	2632.04
1104.18	2635.83
1105.21	2640.19
1106.25	2644.21
1107.29	2647.89
1108.33	2648.23
1109.37	2650
1110.41	2650.57
1111.44	2649.38
1112.48	2647.33
1113.52	2645.24
1114.56	2638.61
1115.59	2628.22
1116.63	2617.36
1117.66	2603.72
1118.7	2590.63
1119.73	2575.71
1120.77	2564.21
1121.8	2553.42
1122.84	2543.16
1123.87	2533.48
1124.91	2530.55
1125.94	2525
1126.97	2520.53
1128.01	2518.57
1129.04	2519.15
1130.07	2522.87
1131.11	2527.09
1132.14	2533.97
1133.17	2540.18
1134.2	2554.51
1135.23	2566.01
1136.26	2587.66
1137.29	2616.04
1138.32	2649.05
1139.35	2682.44
1140.38	2715.15
1141.41	2746.84
1142.44	2773.01
1143.47	2794.62
1144.5	2800.29
1145.53	2812.77
1146.56	2795.18
1147.58	2800.63
1148.61	2817.75
1149.64	2826.08
1150.67	2840.82
1151.69	2885.69
1152.72	2911.9
1153.75	2938.37
1154.77	2962.93
1155.8	2980.53
1156.82	2998.87
1157.85	3017.18
1158.87	3015.32
1159.9	2989.44
1160.92	2938.38
1161.95	2858.95
1162.97	2786.3
1163.99	2708.07
1165.02	2628.5
1166.04	2569.26
1167.06	2515.84
1168.08	2506.55
1169.11	2488.74
1170.13	2478.29
1171.15	2475.21
1172.17	2476.91
1173.19	2480.83
1174.21	2493.04
1175.23	2506.93
1176.25	2524.69
1177.27	2542.64
1178.29	2565.23
1179.31	2586.29
1180.33	2607.06
1181.35	2622.25
1182.37	2629.99
1183.39	2647.57
1184.4	2658.49
1185.42	2671.03
1186.44	2676.19
1187.46	2672.3
1188.47	2659.97
1189.49	2643.82
1190.51	2624.83
1191.52	2599.34
1192.54	2564.18
1193.55	2521.48
1194.57	2474.1
1195.58	2435.61
1196.6	2403.69
1197.61	2375.02
1198.63	2351.53
1199.64	2335.44
1200.65	2324.77
1201.67	2316.06
1202.68	2309.43
1203.69	2308.2
1204.7	2307.8
1205.72	2302.42
1206.73	2302.5
1207.74	2307.7
1208.75	2316.07
1209.76	2325.5
1210.77	2335.62
1211.78	2347.18
1212.79	2356.89
1213.8	2366.57
1214.81	2374.63
1215.82	2380.8
1216.83	2385.14
1217.84	2388.09
1218.85	2389.81
1219.86	2390.86
1220.87	2387.73
1221.87	2384.12
1222.88	2379.43
1223.89	2375.28
1224.9	2371.09
1225.9	2366.14
1226.91	2359.13
1227.92	2350.46
1228.92	2341.96
1229.93	2329.43
1230.93	2314.64
1231.94	2298.51
1232.94	2280.68
1233.95	2262.48
1234.95	2242.91
1235.95	2224.09
1236.96	2204.36
1237.96	2183.97
1238.96	2164.35
1239.97	2146.5
1240.97	2129.24
1241.97	2112.9
1242.97	2099.88
1243.98	2089.05
1244.98	2079.45
1245.98	2073.02
1246.98	2067.04
1247.98	2059.97
1248.98	2054.42
1249.98	2049.58
1250.98	2044.78
1251.98	2040.42
1252.98	2036.32
1253.98	2032.74
1254.98	2031.36
1255.98	2030.67
1256.97	2030.72
1257.97	2031.53
1258.97	2033.72
1259.97	2035.96
1260.97	2037.3
1261.96	2038.47
1262.96	2040.54
1263.95	2043.03
1264.95	2045.86
1265.95	2046.95
1266.94	2042.56
1267.94	2036.34
1268.93	2028.36
1269.93	2019.15
1270.92	2009.81
1271.92	2000.63
1272.91	1992.54
1273.9	1985.47
1274.9	1980.72
1275.89	1975.64
1276.88	1968.87
1277.87	1972.24
1278.87	1984.44
1279.86	1991.73
1280.85	2000.45
1281.84	2008.8
1282.83	2015.71
1283.82	2021.6
1284.81	2029.11
1285.81	2035.56
1286.8	2042.82
1287.79	2041.12
1288.77	2036.21
1289.76	2026.23
1290.75	2013.88
1291.74	1998.75
1292.73	1977.04
1293.72	1960.74
1294.71	1946.22
1295.69	1933.37
1296.68	1921.08
1297.67	1912.7
1298.65	1921.49
1299.64	1921.38
1300.63	1920.11
1301.61	1917.95
1302.6	1914.42
1303.58	1912.14
1304.57	1911.22
1305.55	1911.37
1306.54	1907.32
1307.52	1902.18
1308.51	1893.74
1309.49	1880.2
1310.48	1866.07
1311.46	1853.81
1312.44	1839.56
1313.42	1831.34
1314.41	1822.64
1315.39	1821.91
1316.37	1821.25
1317.35	1830.27
1318.33	1841.23
1319.32	1859.66
1320.3	1875.92
1321.28	1897.23
1322.26	1951.29
1323.24	1997.79
1324.22	2044.8
1325.2	2097.39
1326.18	2140.59
1327.15	2170.86
1328.13	2190.77
1329.11	2178.15
1330.09	2145.82
1331.07	2050.39
1332.05	1984.88
1333.02	1924.11
1334	1874.26
1334.98	1839.99
1335.95	1814.39
1336.93	1801.04
1337.91	1794.08
1338.88	1796.9
1339.86	1797.11
1340.83	1798.25
1341.81	1797.3
1342.78	1793.14
1343.76	1784.74
1344.73	1772.61
1345.7	1761.88
1346.68	1747.33
1347.65	1734.79
1348.62	1730.23
1349.6	1727.36
1350.57	1730.29
1351.54	1736.17
1352.51	1740.52
1353.49	1747.65
1354.46	1748.92
1355.43	1744.94
1356.4	1738.23
1357.37	1731.68
1358.34	1720.81
1359.31	1709.9
1360.28	1693.37
1361.25	1679.14
1362.22	1658.42
1363.19	1640.84
1364.16	1627.33
1365.12	1615.94
1366.09	1605.97
1367.06	1600.39
1368.03	1601.61
1369	1604.18
1369.96	1609.25
1370.93	1613.95
1371.9	1618.5
1372.86	1623.64
1373.83	1629.36
1374.79	1635.43
1375.76	1638.25
1376.73	1642.33
1377.69	1640.09
1378.66	1640.74
1379.62	1641.33
1380.58	1641.27
1381.55	1638.97
1382.51	1628.81
1383.48	1625.9
1384.44	1624.29
1385.4	1622.56
1386.36	1620.04
1387.33	1617.96
1388.29	1616.79
1389.25	1615.05
1390.21	1614.94
1391.17	1614.56
1392.13	1612.91
1393.09	1611.59
1394.06	1608.52
1395.01	1602.39
1395.97	1596.21
1396.93	1588.22
1397.89	1580.7
1398.85	1572.72
1399.81	1563.96
1400.77	1555.67
1401.73	1545.96
1402.69	1538.3
1403.64	1531.53
1404.6	1523.73
1405.56	1517
1406.52	1510.95
1407.47	1503.57
1408.43	1499.31
1409.39	1496.62
1410.34	1495.76
1411.3	1495.61
1412.25	1497.4
1413.21	1497.42
1414.16	1499.62
1415.12	1501.58
1416.07	1501.11
1417.03	1500.8
1417.98	1500.79
1418.93	1500.92
1419.89	1501.17
1420.84	1499.22
1421.79	1497.31
1422.74	1495.2
1423.7	1494.18
1424.65	1496.35
1425.6	1500.57
1426.55	1504.57
1427.5	1510.38
1428.45	1516.1
1429.4	1523.41
1430.35	1529.78
1431.3	1535.97
1432.25	1542.95
1433.2	1550.3
1434.15	1556.83
1435.1	1561.53
1436.05	1564.28
1437	1567.89
1437.95	1571.07
1438.89	1573.44
1439.84	1573.74
1440.79	1570.42
1441.74	1566.91
1442.68	1562.52
1443.63	1555.15
1444.58	1548.15
1445.52	1540.4
1446.47	1531.41
1447.41	1521.69
1448.36	1513.51
1449.3	1503.41
1450.25	1494.22
1451.19	1485.05
1452.14	1475.32
1453.08	1464.56
1454.03	1455.25
1454.97	1446.8
1455.91	1439.23
1456.85	1433.37
1457.8	1429.12
1458.74	1424.99
1459.68	1420.33
1460.62	1416.73
1461.57	1412.49
1462.51	1409.54
1463.45	1406.67
1464.39	1403.18
1465.33	1399.58
1466.27	1400.9
1467.21	1399.51
1468.15	1395.49
1469.09	1390.76
1470.03	1386.07
1470.97	1380.48
1471.9	1374.58
1472.84	1368.83
1473.78	1363.71
1474.72	1360.99
1475.66	1359.18
1476.59	1359.6
1477.53	1361.55
1478.47	1364.55
1479.4	1368.92
1480.34	1374.9
1481.28	1381.35
1482.21	1388.8
1483.15	1395.18
1484.08	1403.6
1485.02	1410.14
1485.95	1414.98
1486.89	1419.33
1487.82	1421.92
1488.76	1421.01
1489.69	1417.59
1490.62	1412.25
1491.56	1405.02
1492.49	1398.28
1493.42	1390.3
1494.35	1380.77
1495.29	1372.71
1496.22	1363.63
1497.15	1354.17
1498.08	1347.28
1499.01	1341.89
1499.94	1337.36
1500.87	1333.86
1501.8	1331.42
1502.73	1331.77
1503.66	1334.94
1504.59	1338.9
1505.52	1346.43
1506.45	1352.6
1507.38	1360.26
1508.31	1370.06
1509.23	1379.15
1510.16	1389.07
1511.09	1403.49
1512.02	1424.32
1512.94	1447.29
1513.87	1478.16
1514.8	1521.73
1515.72	1562.44
1516.65	1591.42
1517.58	1627.44
1518.5	1679.58
1519.43	1730.04
1520.35	1780.35
1521.28	1829.91
1522.2	1872.45
1523.12	1916.41
1524.05	1943.07
1524.97	1970.96
1525.9	1978.84
1526.82	1976.72
1527.74	1969.11
1528.66	1956.27
1529.59	1934.88
1530.51	1909.47
1531.43	1878.7
1532.35	1845.07
1533.27	1806.29
1534.19	1766.46
1535.11	1725.36
1536.04	1683.6
1536.96	1647.68
1537.88	1612.12
1538.8	1580.94
1539.71	1555.5
1540.63	1536.55
1541.55	1515.87
1542.47	1503.78
1543.39	1492.31
1544.31	1482.81
1545.23	1481.54
1546.14	1484.25
1547.06	1486.46
1547.98	1496.47
1548.89	1507.78
1549.81	1521.57
1550.73	1537.15
1551.64	1552.44
1552.56	1567.61
1553.47	1581.33
1554.39	1590.93
1555.31	1596.09
1556.22	1589.75
1557.13	1585.32
1558.05	1578.54
1558.96	1570
1559.88	1562.83
1560.79	1555.62
1561.7	1549.87
1562.62	1547.62
1563.53	1545.48
1564.44	1558.19
1565.35	1562.53
1566.27	1565.2
1567.18	1566.01
1568.09	1568.92
1569	1572.02
1569.91	1575.47
1570.82	1579.68
1571.73	1584.06
1572.64	1589.39
1573.55	1594.73
1574.46	1600.44
1575.37	1607.04
1576.28	1615.07
1577.19	1623.97
1578.1	1633.87
1579	1644.05
1579.91	1654.4
1580.82	1666.02
1581.73	1677.48
1582.63	1689.46
1583.54	1701.03
1584.45	1711.99
1585.35	1722.9
1586.26	1732.15
1587.17	1739.73
1588.07	1745.88
1588.98	1749.28
1589.88	1754.7
1590.79	1761.28
1591.69	1769.02
1592.6	1778.91
1593.5	1794.76
1594.4	1808.92
1595.31	1821.9
1596.21	1835.57
1597.11	1850.98
1598.02	1866.46
1598.92	1877.8
1599.82	1889.52
1600.72	1902.43
1601.63	1915.51
1602.53	1928.02
1603.43	1939.17
1604.33	1949.67
1605.23	1960.16
1606.13	1969.22
1607.03	1977.08
1607.93	1984.93
1608.83	1992.78
1609.73	1998.63
1610.63	2003.69
1611.53	2007.02
1612.43	2009.98
1613.32	2013.42
1614.22	2016.33
1615.12	2018.93
1616.02	2021.86
1616.92	2025.03
1617.81	2026.43
1618.71	2029.9
1619.61	2036.91
1620.5	2042.8
1621.4	2049
1622.29	2053.57
1623.19	2057.88
1624.08	2063.28
1624.98	2070.12
1625.87	2077.04
1626.77	2082.3
1627.66	2086.51
1628.56	2090.27
1629.45	2093.76
1630.34	2099.39
1631.24	2107.99
1632.13	2117.63
1632.84	2122.62
1633.77	2126.25
1634.7	2126.31
1635.63	2129.65
1636.56	2128.88
1637.49	2127.42
1638.42	2125.3
1639.34	2119.51
1640.27	2113.24
1641.2	2107.53
1642.13	2102.91
1643.05	2099.63
1643.98	2096.91
1644.91	2092.99
1645.83	2089.35
1646.76	2087.02
1647.68	2084.79
1648.61	2084.44
1649.54	2084.35
1650.46	2083.32
1651.39	2081.44
1652.31	2079.24
1653.23	2076.73
1654.16	2072.86
1655.08	2068.14
1656.01	2062.86
1656.93	2055.82
1657.85	2051.08
1658.78	2043.94
1659.7	2037.9
1660.62	2032.94
1661.54	2031.11
1662.47	2029.08
1663.39	2026.52
1664.31	2024.74
1665.23	2022.71
1666.15	2021.58
1667.07	2020.38
1667.99	2020.87
1668.92	2020.63
1669.84	2020.94
1670.76	2019.69
1671.68	2019.33
1672.6	2018.84
1673.52	2016.06
1674.43	2013.15
1675.35	2010.19
1676.27	2008
1677.19	2004.89
1678.11	2002.74
1679.03	1999.05
1679.95	1996.89
1680.86	1995.99
1681.78	1994.92
1682.7	1993.55
1683.61	1990.35
1684.53	1987.91
1685.45	1983.85
1686.36	1980.17
1687.28	1973.7
1688.2	1967.16
1689.11	1960.58
1690.03	1951.62
1690.94	1942.52
1691.86	1933.07
1692.77	1925.2
1693.69	1917.16
1694.6	1910.43
1695.52	1905.71
1696.43	1902.52
1697.34	1900.06
1698.26	1899.31
1699.17	1899.79
1700.08	1899.86
1700.99	1901.49
1701.91	1900.76
1702.82	1899.45
1703.73	1897.78
1704.64	1897.15
1705.55	1894.13
1706.47	1891.04
1707.38	1888.19
1708.29	1884.07
1709.2	1880.38
1710.11	1875.92
1711.02	1870.7
1711.93	1867.4
1712.84	1866.71
1713.75	1864.06
1714.66	1861.21
1715.57	1857.36
1716.48	1852.91
1717.39	1849.68
1718.29	1846.51
1719.2	1841.96
1720.11	1837.26
1721.02	1833.42
1721.93	1829.75
1722.83	1824.92
1723.74	1819.49
1724.65	1814.27
1725.55	1809.78
1726.46	1807.01
1727.37	1806.11
1728.27	1805.08
1729.18	1803.84
1730.08	1801.33
1730.99	1800.08
1731.89	1798.35
1732.8	1796.22
1733.7	1792.63
1734.61	1789.95
1735.51	1788.65
1736.42	1786.56
1737.32	1785.48
1738.22	1785.63
1739.13	1784.86
1740.03	1785.08
1740.93	1786.59
1741.83	1788.89
1742.74	1791.91
1743.64	1794.31
1744.54	1801.93
1745.44	1803.33
1746.34	1801.97
1747.24	1798.13
1748.15	1792.94
1749.05	1785.44
1749.95	1776.25
1750.85	1767.87
1751.75	1758.37
1752.65	1750.03
1753.55	1743.54
1754.45	1738.32
1755.35	1734.46
1756.25	1730.92
1757.14	1726.58
1758.04	1724.38
1758.94	1723.37
1759.84	1725.52
1760.74	1723.78
1761.63	1722.39
1762.53	1721.25
1763.43	1719.64
1764.33	1716.93
1765.22	1715.01
1766.12	1710.78
1767.02	1704.66
1767.91	1698.77
1768.81	1694.66
1769.7	1690.4
1770.6	1687.91
1771.49	1684.28
1772.39	1681.85
1773.28	1678.87
1774.18	1677.03
1775.07	1674.95
1775.97	1673.22
1776.86	1671.92
1777.75	1670.47
1778.65	1670.02
1779.54	1668.46
1780.43	1668.2
1781.33	1667.64
1782.22	1667.1
1783.11	1666.99
1784	1665.11
1784.89	1663.59
1785.79	1662.19
1786.68	1660.18
1787.57	1658.59
1788.46	1655.32
1789.35	1650.89
1790.24	1644.69
1791.13	1639.22
1792.02	1634.7
1792.91	1630.57
1793.8	1626
1794.69	1620.47
1795.58	1613.47
1796.47	1606.48
1797.36	1600.25
1798.25	1599.83
1799.13	1599.84
