Acq. time (s)=	15
Accumulations=	2
Range (cm-¹)=	600...1800
Windows=	2
Autofocus=	Off
AutoExposure=	On
Spike filter=	Multiple accum.
Delay time (s)=	1
Binning=	1
Readout mode=	Signal
DeNoise=	Standard
ICS correction=	Off
Dark correction=	Off
Inst. Process=	Off
Instrument=	XploRA
Detector=	Syncerity
Objective=	x20LWD
Grating=	1200 gr/mm
Filter=	25%
Laser (nm)=	785 
Slit (µm)=	100 
Hole (µm)=	300 
Laser pol=	None
Raman pol=	None
Output=	Camera
StageXY=	Marzhauser
StageZ=	
X (µm)=	5011.2
Y (µm)=	739.2
Project=	
Sample=	
Site=	
Title=	To20-T
Remark=	
Date=	16.10.2022 00:40
Acquired=	16.10.2022 00:40:49
600.787	1176.79
601.956	1190.78
603.126	1204.6
604.294	1218.21
605.463	1231.67
606.631	1244.92
607.8	1258.06
608.967	1270.95
610.135	1283.59
611.302	1296.18
612.468	1308.62
613.635	1321.01
614.802	1333.17
615.968	1345.15
617.133	1356.99
618.299	1368.49
619.464	1380.18
620.629	1391.63
621.793	1402.82
622.958	1412.76
624.121	1421.38
625.285	1429.57
626.448	1437.15
627.612	1443.85
628.774	1450.18
629.937	1455.68
631.099	1461.72
632.261	1468.46
633.423	1475.86
634.584	1482.36
635.745	1488.62
636.906	1491.27
638.066	1491.99
639.227	1491.02
640.386	1490.78
641.546	1493.48
642.705	1496.39
643.864	1499.53
645.023	1502.62
646.181	1506.21
647.339	1510.01
648.497	1514.15
649.655	1518.61
650.812	1523.4
651.969	1528.3
653.125	1533.28
654.282	1538.45
655.438	1543.77
656.593	1549.31
657.75	1554.74
658.905	1559.95
660.059	1564.48
661.214	1567.67
662.368	1570.75
663.522	1575.58
664.676	1580.66
665.83	1583.39
666.983	1585.69
668.136	1588.25
669.288	1592.95
670.441	1598.22
671.592	1603.38
672.744	1607.89
673.895	1611.93
675.046	1615.76
676.197	1620.47
677.348	1625.23
678.498	1629.46
679.648	1633.31
680.798	1636.22
681.947	1637.66
683.096	1638.37
684.245	1638.49
685.394	1638.05
686.542	1637.01
687.69	1636.13
688.837	1634.96
689.984	1634.95
691.132	1635.87
692.278	1636.74
693.425	1637.55
694.571	1638.43
695.717	1638.54
696.863	1638.61
698.008	1639.04
699.152	1639.4
700.298	1639.73
701.442	1639.22
702.586	1637.89
703.73	1636.44
704.873	1634.99
706.017	1633.47
707.16	1632.16
708.302	1630.57
709.445	1628.75
710.586	1625.94
711.729	1621.1
712.87	1616.52
714.012	1611.9
715.152	1607.35
716.293	1602.56
717.433	1596.72
718.573	1591.36
719.713	1587.52
720.853	1584.87
721.991	1583.18
723.131	1582.68
724.269	1583.71
725.408	1585.74
726.545	1588.67
727.683	1592.29
728.821	1596.06
729.958	1598.57
731.095	1602.11
732.231	1606.07
733.368	1612.16
734.503	1618.78
735.639	1626.05
736.775	1632.56
737.91	1637.86
739.045	1641.71
740.179	1643.43
741.313	1643.2
742.447	1641.45
743.581	1636.22
744.714	1629.05
745.847	1621.71
746.98	1615.36
748.113	1609.03
749.245	1602.39
750.377	1595.67
751.509	1588.94
752.64	1581.71
753.771	1574.3
754.902	1566.93
756.033	1559.59
757.163	1552.3
758.293	1545.02
759.423	1537.86
760.551	1531
761.681	1524.57
762.81	1518.54
763.938	1512.52
765.066	1505.77
766.194	1498.06
767.321	1491.5
768.449	1486.7
769.576	1482.57
770.703	1478.81
771.83	1475.14
772.955	1471.38
774.081	1467.78
775.207	1464.29
776.332	1460.52
777.457	1456.92
778.582	1453.31
779.707	1449.63
780.831	1446.68
781.954	1444.07
783.078	1443.07
784.201	1442.06
785.324	1439.53
786.447	1437.12
787.569	1434.55
788.691	1431.99
789.813	1429.66
790.935	1426.73
792.056	1417.41
793.177	1410.19
794.297	1404.74
795.418	1401.34
796.539	1399.77
797.658	1398.88
798.777	1397.63
799.897	1397.06
801.016	1396.18
802.134	1392.1
803.253	1388.09
804.371	1384.58
805.489	1381.77
806.606	1378.46
807.723	1375.34
808.84	1372.36
809.957	1369.84
811.073	1368.05
812.19	1367.81
813.305	1368.05
814.421	1368.23
815.536	1367.83
816.651	1366.66
817.766	1363.78
818.88	1360.54
819.994	1357.38
821.108	1354.44
822.221	1351.57
823.335	1348.73
824.448	1345.93
825.56	1343.4
826.673	1341.2
827.784	1338.98
828.897	1337
830.008	1338.49
831.119	1339.95
832.23	1341.89
833.341	1343.69
834.451	1345.55
835.561	1347.74
836.671	1349.72
837.78	1351.39
838.89	1352.49
839.998	1353.08
841.108	1352.44
842.216	1351.37
843.324	1349.54
844.431	1347.06
845.539	1344.01
846.646	1340.36
847.753	1335.79
848.859	1330.38
849.966	1323.94
851.071	1316.82
852.178	1312.51
853.283	1308.09
854.388	1303.36
855.494	1298.6
856.598	1293.71
857.703	1288.81
858.806	1284.17
859.91	1279.45
861.014	1274.66
862.116	1269.96
863.22	1265.59
864.322	1261.82
865.425	1258.83
866.527	1255.35
867.628	1250.74
868.73	1245.76
869.831	1240.47
870.932	1236.02
872.032	1232.29
873.133	1229.12
874.233	1226.89
875.333	1224.5
876.432	1222.25
877.532	1221.11
878.631	1221.13
879.729	1221.8
880.828	1222.52
881.926	1222.76
883.023	1223.42
884.121	1224.25
885.218	1225.2
886.315	1225.99
887.412	1226.57
888.508	1226.92
889.604	1226.84
890.699	1226.05
891.795	1225
892.89	1223.67
893.985	1222.1
895.08	1220.01
896.174	1217.31
897.268	1214.33
898.362	1211.22
899.456	1208.39
900.549	1207.13
901.642	1205.81
902.734	1205
903.827	1204.73
904.919	1205.19
906.011	1207.79
907.102	1211.83
908.193	1216.95
909.284	1223.16
910.375	1229.05
911.465	1233.1
912.555	1233.98
913.645	1230.1
914.734	1223.79
915.824	1219.56
916.913	1214.48
918.001	1206.1
919.09	1198.87
920.177	1191.86
921.266	1185.29
922.353	1178.32
923.44	1171.61
924.527	1166.33
925.614	1162.98
926.7	1159.25
927.786	1156.07
928.873	1153.51
929.958	1151.91
931.043	1150.58
932.128	1149.02
933.213	1146.18
934.297	1143.18
935.381	1138.97
936.465	1134.88
937.549	1131.04
938.632	1128
939.715	1124.92
940.798	1121.81
941.881	1118.58
942.962	1114.56
944.044	1110.18
945.125	1106.11
946.207	1103.86
947.288	1102.91
948.368	1102.41
949.449	1102.36
950.529	1102.35
951.61	1102.37
952.689	1102.1
953.769	1101.69
954.847	1100.95
955.926	1099.5
957.004	1097.23
958.082	1094.26
959.16	1091.12
960.238	1087.49
961.316	1083.47
962.392	1079.22
963.469	1075.2
964.546	1072.17
965.622	1071.05
966.698	1070.96
967.774	1071.76
968.849	1073.04
969.924	1075.09
970.998	1077.66
972.073	1080.81
973.148	1084.25
974.221	1087.65
975.295	1091.69
976.369	1095.29
977.441	1098.8
978.514	1101.81
979.587	1104.18
980.659	1105.73
981.731	1106
982.802	1105.79
983.874	1104.77
984.945	1103.39
986.016	1105.3
987.087	1103.24
988.157	1100.14
989.227	1096.41
990.296	1093.17
991.366	1090.43
992.435	1088.71
993.504	1087.98
994.573	1088
995.641	1089.34
996.709	1091.77
997.777	1095.87
998.844	1095.88
999.911	1094.3
1000.98	1091.05
1002.05	1086.35
1003.11	1079.53
1004.18	1071
1005.24	1061.96
1006.31	1048.55
1007.37	1041.71
1008.44	1034.71
1009.5	1026.53
1010.57	1017.43
1011.63	1008.16
1012.7	999.498
1013.76	993.089
1014.82	990.304
1015.89	988.306
1016.95	984.498
1018.01	981.072
1019.07	978.276
1020.13	976.254
1021.2	974.648
1022.26	973.577
1023.32	973.1
1024.38	972.872
1025.44	972.408
1026.5	969.615
1027.56	961.737
1028.62	958.596
1029.68	955.447
1030.74	952.5
1031.8	949.875
1032.85	947.771
1033.91	946.205
1034.97	945.212
1036.03	944.931
1037.09	945.539
1038.14	947.055
1039.2	949.186
1040.26	951.815
1041.31	954.573
1042.37	956.292
1043.42	957.473
1044.48	957.907
1045.53	954.089
1046.59	953.542
1047.64	952.352
1048.7	950.629
1049.75	948.202
1050.81	945.085
1051.86	941.229
1052.91	936.839
1053.97	932.025
1055.02	927.547
1056.07	924.096
1057.12	921.464
1058.17	919.803
1059.23	919.601
1060.28	920.557
1061.33	921.799
1062.38	923.242
1063.43	924.611
1064.48	925.785
1065.53	926.467
1066.58	926.699
1067.63	926.196
1068.68	924.972
1069.72	923.196
1070.77	919.928
1071.82	916.202
1072.87	911.925
1073.92	907.489
1074.96	903.723
1076.01	900.198
1077.06	897.122
1078.1	894.512
1079.15	892.861
1080.2	891.623
1081.24	890.61
1082.29	889.742
1083.33	888.648
1084.38	887.15
1085.42	885.247
1086.47	883.187
1087.51	881.325
1088.55	879.89
1089.6	879.417
1090.64	878.911
1091.68	878.358
1092.73	877.526
1093.77	875.995
1094.81	874.177
1095.85	872.19
1096.89	869.399
1097.93	866.57
1098.98	863.88
1100.02	861.46
1101.06	859.873
1102.1	858.611
1103.14	857.444
1104.18	856.789
1105.21	856.311
1106.25	856.581
1107.29	861.056
1108.33	866.848
1109.37	866.218
1110.41	864.783
1111.44	862.528
1112.48	858.415
1113.52	853.871
1114.56	849.394
1115.59	845.955
1116.63	842.811
1117.66	840.188
1118.7	838.232
1119.73	836.531
1120.77	835.375
1121.8	833.081
1122.84	831.176
1123.87	829.644
1124.91	829.828
1125.94	831.667
1126.97	834.39
1128.01	837.375
1129.04	838.552
1130.07	839.072
1131.11	841.342
1132.14	844.767
1133.17	849.454
1134.2	855.813
1135.23	863.935
1136.26	876.294
1137.29	888.14
1138.32	899.513
1139.35	910.592
1140.38	922.964
1141.41	922.594
1142.44	915.055
1143.47	908.522
1144.5	901.019
1145.53	894.183
1146.56	892.963
1147.58	899.95
1148.61	907.472
1149.64	921.122
1150.67	939.306
1151.69	950.799
1152.72	960.909
1153.75	962.279
1154.77	960.441
1155.8	944.939
1156.82	930.396
1157.85	914.187
1158.87	899.194
1159.9	888.028
1160.92	868.287
1161.95	852.075
1162.97	831.076
1163.99	812.457
1165.02	796.802
1166.04	785.867
1167.06	784.943
1168.08	794.606
1169.11	822.102
1170.13	843.846
1171.15	843.688
1172.17	830.646
1173.19	802.699
1174.21	866.47
1175.23	869.709
1176.25	872.732
1177.27	859.654
1178.29	860.238
1179.31	857.207
1180.33	851.429
1181.35	875.086
1182.37	850.896
1183.39	862.083
1184.4	856.348
1185.42	851.72
1186.44	846.653
1187.46	840.881
1188.47	833.748
1189.49	824.229
1190.51	814.576
1191.52	805.719
1192.54	797.252
1193.55	788.612
1194.57	780.815
1195.58	773.869
1196.6	767.756
1197.61	763.319
1198.63	760.581
1199.64	758.953
1200.65	758.601
1201.67	759.52
1202.68	761.265
1203.69	763.562
1204.7	766.183
1205.72	768.121
1206.73	769.862
1207.74	771.175
1208.75	772.273
1209.76	773.195
1210.77	773.989
1211.78	774.783
1212.79	775.377
1213.8	775.536
1214.81	775.488
1215.82	775.185
1216.83	774.967
1217.84	774.907
1218.85	775.281
1219.86	775.522
1220.87	775.564
1221.87	775.215
1222.88	774.587
1223.89	773.374
1224.9	771.146
1225.9	764.671
1226.91	757.955
1227.92	753.542
1228.92	749.762
1229.93	746.212
1230.93	742.57
1231.94	739.681
1232.94	737.84
1233.95	732.817
1234.95	723.119
1235.95	713.125
1236.96	705.797
1237.96	700.41
1238.96	695.938
1239.97	693.437
1240.97	689.477
1241.97	686.194
1242.97	682.608
1243.98	685.094
1244.98	691.865
1245.98	694.591
1246.98	680.279
1247.98	679.744
1248.98	679.494
1249.98	679.693
1250.98	680.287
1251.98	681.169
1252.98	682.469
1253.98	683.955
1254.98	685.489
1255.98	686.842
1256.97	688.081
1257.97	688.906
1258.97	689.145
1259.97	689.101
1260.97	688.722
1261.96	687.968
1262.96	686.635
1263.95	684.996
1264.95	682.819
1265.95	679.716
1266.94	676.324
1267.94	672.806
1268.93	669.357
1269.93	666.33
1270.92	663.87
1271.92	661.521
1272.91	659.707
1273.9	658.259
1274.9	657.251
1275.89	656.911
1276.88	657.12
1277.87	658.477
1278.87	660.737
1279.86	665.388
1280.85	667.209
1281.84	667.536
1282.83	666.963
1283.82	665.264
1284.81	665.073
1285.81	665.365
1286.8	665.309
1287.79	664.267
1288.77	663.203
1289.76	661.366
1290.75	655.998
1291.74	648.231
1292.73	637.305
1293.72	624.406
1294.71	615.69
1295.69	617.705
1296.68	621.866
1297.67	630.171
1298.65	630.381
1299.64	630.266
1300.63	631.281
1301.61	631.892
1302.6	631.768
1303.58	630.699
1304.57	627.197
1305.55	623.454
1306.54	619.959
1307.52	617.897
1308.51	616.341
1309.49	615.358
1310.48	614.755
1311.46	614.823
1312.44	615.061
1313.42	615.972
1314.41	617.63
1315.39	621.365
1316.37	627.277
1317.35	634.304
1318.33	641.368
1319.32	650.684
1320.3	665.455
1321.28	677.329
1322.26	687.06
1323.24	694.136
1324.22	698.18
1325.2	699.631
1326.18	698.462
1327.15	686.019
1328.13	674.352
1329.11	662.521
1330.09	651.089
1331.07	639.922
1332.05	628.892
1333.02	618.093
1334	607.757
1334.98	598.153
1335.95	596.58
1336.93	591.669
1337.91	587.503
1338.88	584.899
1339.86	583.295
1340.83	582.871
1341.81	583.372
1342.78	584.338
1343.76	586.06
1344.73	587.621
1345.7	588.615
1346.68	589.102
1347.65	588.667
1348.62	587.818
1349.6	586.571
1350.57	584.877
1351.54	582.385
1352.51	579.528
1353.49	576.339
1354.46	572.631
1355.43	568.779
1356.4	564.682
1357.37	560.777
1358.34	557.213
1359.31	553.894
1360.28	550.855
1361.25	548.43
1362.22	546.408
1363.19	544.522
1364.16	543.632
1365.12	543.142
1366.09	542.987
1367.06	542.914
1368.03	543.024
1369	543.166
1369.96	542.738
1370.93	542.684
1371.9	542.728
1372.86	543.043
1373.83	543.668
1374.79	544.067
1375.76	544.408
1376.73	543.742
1377.69	542.676
1378.66	542.23
1379.62	542.354
1380.58	542.62
1381.55	542.548
1382.51	541.701
1383.48	541.666
1384.44	542.13
1385.4	542.276
1386.36	542.083
1387.33	540.655
1388.29	538.377
1389.25	535.897
1390.21	534.785
1391.17	534.245
1392.13	533.923
1393.09	533.108
1394.06	532.081
1395.01	530.739
1395.97	529.544
1396.93	528.187
1397.89	527.181
1398.85	526.35
1399.81	525.445
1400.77	524.519
1401.73	523.478
1402.69	522.382
1403.64	520.779
1404.6	518.358
1405.56	515.518
1406.52	512.971
1407.47	510.518
1408.43	508.662
1409.39	506.984
1410.34	505.445
1411.3	504.082
1412.25	502.93
1413.21	501.962
1414.16	501.135
1415.12	500.534
1416.07	500.185
1417.03	499.996
1417.98	500.088
1418.93	500.194
1419.89	500.425
1420.84	500.875
1421.79	501.517
1422.74	502.271
1423.7	503.338
1424.65	504.619
1425.6	506.153
1426.55	508.147
1427.5	511.34
1428.45	514.375
1429.4	517.096
1430.35	519.562
1431.3	520.793
1432.25	521.874
1433.2	522.652
1434.15	523.083
1435.1	522.862
1436.05	522.299
1437	521.421
1437.95	520.193
1438.89	518.763
1439.84	517.015
1440.79	515.129
1441.74	512.935
1442.68	510.87
1443.63	508.406
1444.58	505.669
1445.52	502.581
1446.47	499.075
1447.41	495.343
1448.36	491.584
1449.3	488.072
1450.25	485.986
1451.19	484.241
1452.14	481.917
1453.08	479.182
1454.03	477.21
1454.97	475.527
1455.91	474.175
1456.85	472.935
1457.8	471.863
1458.74	470.949
1459.68	470.09
1460.62	469.384
1461.57	468.688
1462.51	468.17
1463.45	467.691
1464.39	467.253
1465.33	467.113
1466.27	467.034
1467.21	467.128
1468.15	467.366
1469.09	467.407
1470.03	467.33
1470.97	466.89
1471.9	466.752
1472.84	467.057
1473.78	467.236
1474.72	467.297
1475.66	467.019
1476.59	466.561
1477.53	466.235
1478.47	465.997
1479.4	466.015
1480.34	467.336
1481.28	468.74
1482.21	470.203
1483.15	470.48
1484.08	470.422
1485.02	470.023
1485.95	469.698
1486.89	468.695
1487.82	467.634
1488.76	466.65
1489.69	465.636
1490.62	464.965
1491.56	464.003
1492.49	462.376
1493.42	460.557
1494.35	458.83
1495.29	457.143
1496.22	455.747
1497.15	454.722
1498.08	453.907
1499.01	452.889
1499.94	452.19
1500.87	451.955
1501.8	452.132
1502.73	452.877
1503.66	454.236
1504.59	456.752
1505.52	459.623
1506.45	463.133
1507.38	467.182
1508.31	471.605
1509.23	476.682
1510.16	482.572
1511.09	489.269
1512.02	497.516
1512.94	507.044
1513.87	517.297
1514.8	528.666
1515.72	540.733
1516.65	552.972
1517.58	564.704
1518.5	575.696
1519.43	587.074
1520.35	596.832
1521.28	603.994
1522.2	608.736
1523.12	611.084
1524.05	611.243
1524.97	608.889
1525.9	604.945
1526.82	598.348
1527.74	590.417
1528.66	582
1529.59	572.542
1530.51	562.516
1531.43	551.716
1532.35	541.021
1533.27	529.298
1534.19	517.349
1535.11	505.416
1536.04	493.722
1536.96	483.513
1537.88	473.908
1538.8	465.694
1539.71	459.831
1540.63	456.299
1541.55	455.164
1542.47	455.95
1543.39	455.415
1544.31	455.185
1545.23	454.999
1546.14	455.219
1547.06	455.215
1547.98	454.931
1548.89	454.466
1549.81	450.425
1550.73	448.301
1551.64	445.507
1552.56	441.706
1553.47	437.414
1554.39	433.039
1555.31	428.453
1556.22	424.096
1557.13	420.086
1558.05	416.038
1558.96	411.523
1559.88	407.859
1560.79	404.754
1561.7	403.276
1562.62	402.225
1563.53	400.998
1564.44	400.008
1565.35	398.886
1566.27	397.854
1567.18	396.493
1568.09	395.473
1569	394.455
1569.91	393.589
1570.82	393.323
1571.73	393.524
1572.64	395.83
1573.55	395.862
1574.46	395.007
1575.37	394.161
1576.28	393.448
1577.19	393.317
1578.1	393.436
1579	393.524
1579.91	393.732
1580.82	394.3
1581.73	395.207
1582.63	396.196
1583.54	397.517
1584.45	398.356
1585.35	399.428
1586.26	400.16
1587.17	400.857
1588.07	400.992
1588.98	401.358
1589.88	402.048
1590.79	402.563
1591.69	402.034
1592.6	402.311
1593.5	402.774
1594.4	403.193
1595.31	403.976
1596.21	405.26
1597.11	406.279
1598.02	407.828
1598.92	409.81
1599.82	412
1600.72	414.063
1601.63	415.857
1602.53	417.4
1603.43	418.856
1604.33	420.284
1605.23	420.958
1606.13	420.668
1607.03	420.37
1607.93	419.601
1608.83	417.859
1609.73	415.438
1610.63	413.124
1611.53	410.446
1612.43	407.432
1613.32	404.772
1614.22	402.278
1615.12	400.479
1616.02	398.819
1616.92	397.962
1617.81	397.499
1618.71	397.596
1619.61	397.932
1620.5	398.555
1621.4	398.756
1622.29	398.879
1623.19	399.199
1624.08	399.644
1624.98	400.316
1625.87	400.772
1626.77	401.034
1627.66	401.494
1628.56	402.047
1629.45	402.272
1630.34	401.938
1631.24	402.083
1632.13	402.852
1632.84	403.263
1633.77	403.527
1634.7	403.464
1635.63	402.565
1636.56	401.689
1637.49	400.681
1638.42	399.658
1639.34	398.383
1640.27	396.643
1641.2	395.147
1642.13	394.418
1643.05	393.962
1643.98	393.878
1644.91	393.771
1645.83	394.076
1646.76	393.924
1647.68	393.828
1648.61	394.012
1649.54	394.145
1650.46	394.058
1651.39	393.763
1652.31	393.448
1653.23	393.03
1654.16	391.293
1655.08	390.056
1656.01	389.03
1656.93	388.201
1657.85	386.876
1658.78	384.847
1659.7	384.601
1660.62	385.907
1661.54	386.959
1662.47	387.6
1663.39	388.716
1664.31	388.824
1665.23	388.941
1666.15	388.791
1667.07	387.947
1667.99	387.023
1668.92	385.034
1669.84	382.92
1670.76	381.397
1671.68	379.596
1672.6	377.732
1673.52	376.386
1674.43	374.656
1675.35	373.476
1676.27	372.986
1677.19	372.649
1678.11	373.062
1679.03	374.552
1679.95	375.729
1680.86	376.751
1681.78	377.105
1682.7	376.955
1683.61	375.727
1684.53	374.242
1685.45	372.717
1686.36	371.383
1687.28	369.823
1688.2	367.642
1689.11	365.603
1690.03	363.565
1690.94	361.388
1691.86	359.114
1692.77	357.916
1693.69	356.887
1694.6	356.812
1695.52	356.553
1696.43	356.196
1697.34	355.738
1698.26	354.869
1699.17	354.044
1700.08	353.886
1700.99	352.839
1701.91	351.57
1702.82	350.428
1703.73	349.09
1704.64	348.011
1705.55	346.61
1706.47	345.205
1707.38	345.197
1708.29	345.066
1709.2	345.199
1710.11	345.398
1711.02	345.614
1711.93	345.542
1712.84	345.962
1713.75	346.224
1714.66	347.06
1715.57	347.165
1716.48	347.239
1717.39	347.15
1718.29	346.852
1719.2	346.728
1720.11	346.171
1721.02	345.828
1721.93	345.113
1722.83	344.503
1723.74	343.803
1724.65	343.648
1725.55	343.963
1726.46	344.115
1727.37	343.036
1728.27	342.506
1729.18	342.075
1730.08	341.847
1730.99	341.081
1731.89	340.371
1732.8	339.973
1733.7	338.943
1734.61	337.245
1735.51	335.993
1736.42	335.033
1737.32	334.126
1738.22	333.193
1739.13	333.462
1740.03	333.387
1740.93	333.433
1741.83	333.757
1742.74	334.682
1743.64	335.655
1744.54	335.947
1745.44	335.143
1746.34	334.729
1747.24	333.853
1748.15	332.391
1749.05	330.476
1749.95	328.68
1750.85	327.983
1751.75	325.868
1752.65	324.097
1753.55	323.844
1754.45	324.049
1755.35	324.123
1756.25	325.825
1757.14	327.111
1758.04	327.871
1758.94	328.627
1759.84	328.966
1760.74	328.645
1761.63	328.386
1762.53	326.578
1763.43	324.426
1764.33	323.048
1765.22	321.625
1766.12	320.455
1767.02	319.093
1767.91	317.974
1768.81	317.147
1769.7	315.655
1770.6	315.353
1771.49	315.247
1772.39	315.273
1773.28	315.247
1774.18	315.557
1775.07	315.649
1775.97	315.144
1776.86	314.534
1777.75	313.81
1778.65	313.183
1779.54	312.926
1780.43	312.397
1781.33	312.71
1782.22	312.162
1783.11	311.802
1784	310.463
1784.89	307.496
1785.79	305.73
1786.68	303.944
1787.57	302.353
1788.46	301.159
1789.35	300.012
1790.24	301.596
1791.13	301.472
1792.02	301.358
1792.91	301.207
1793.8	301.209
1794.69	301.364
1795.58	301.672
1796.47	299.056
1797.36	298.83
1798.25	300.432
1799.13	301.094
