Acq. time (s)=	15
Accumulations=	2
Range (cm-¹)=	600...1800
Windows=	2
Autofocus=	Off
AutoExposure=	On
Spike filter=	Multiple accum.
Delay time (s)=	1
Binning=	1
Readout mode=	Signal
DeNoise=	Standard
ICS correction=	Off
Dark correction=	Off
Inst. Process=	Off
Instrument=	XploRA
Detector=	Syncerity
Objective=	x20LWD
Grating=	1200 gr/mm
Filter=	25%
Laser (nm)=	785 
Slit (µm)=	100 
Hole (µm)=	300 
Laser pol=	None
Raman pol=	None
Output=	Camera
StageXY=	Marzhauser
StageZ=	
X (µm)=	-1424.4
Y (µm)=	1798
Project=	
Sample=	
Site=	
Title=	To7-T
Remark=	
Date=	14.10.2022 22:08
Acquired=	14.10.2022 22:08:12
600.787	682.943
601.956	682.486
603.126	689.952
604.294	696.257
605.463	701.919
606.631	704.174
607.8	716.544
608.967	728.222
610.135	735.836
611.302	741.683
612.468	748.434
613.635	744.223
614.802	744.6
615.968	749.559
617.133	754.683
618.299	760.448
619.464	765.581
620.629	771.059
621.793	775.1
622.958	775.382
624.121	777.624
625.285	781.172
626.448	782.523
627.612	784.044
628.774	785.04
629.937	785.267
631.099	784.719
632.261	784.37
633.423	783.865
634.584	783.255
635.745	782.105
636.906	780.452
638.066	778.997
639.227	777.489
640.386	776.079
641.546	775.688
642.705	774.932
643.864	774.773
645.023	774.613
646.181	773.297
647.339	771.673
648.497	771.73
649.655	773.001
650.812	774.335
651.969	775.839
653.125	776.073
654.282	777.76
655.438	780.655
656.593	783.189
657.75	785.625
658.905	787.82
660.059	788.97
661.214	788.993
662.368	789.636
663.522	790.054
664.676	789.9
665.83	789.327
666.983	788.25
668.136	787.959
669.288	788.696
670.441	788.187
671.592	789.378
672.744	790.702
673.895	793.097
675.046	795.17
676.197	799.006
677.348	802.604
678.498	805.794
679.648	808.005
680.798	808.272
681.947	809.364
683.096	809.83
684.245	811.174
685.394	811.244
686.542	811.475
687.69	811.075
688.837	812.085
689.984	812.243
691.132	812.379
692.278	812.816
693.425	812.986
694.571	813.368
695.717	813.292
696.863	813.829
698.008	813.282
699.152	813.308
700.298	811.301
701.442	808.901
702.586	806.61
703.73	803.962
704.873	800.595
706.017	797.361
707.16	793.946
708.302	792.125
709.445	792.683
710.586	794.197
711.729	795.276
712.87	794.876
714.012	795.086
715.152	795.177
716.293	794.963
717.433	796.537
718.573	796.958
719.713	795.719
720.853	793.323
721.991	791.759
723.131	789.226
724.269	786.878
725.408	783.84
726.545	781.781
727.683	777.834
728.821	776.691
729.958	776.295
731.095	779.233
732.231	784.04
733.368	788.089
734.503	792.325
735.639	797.048
736.775	802.549
737.91	807.62
739.045	811.827
740.179	814.266
741.313	815.121
742.447	814.761
743.581	809.69
744.714	805.604
745.847	803.177
746.98	799.584
748.113	796.111
749.245	792.58
750.377	788.52
751.509	784.535
752.64	780.244
753.771	776.553
754.902	773.188
756.033	769.612
757.163	766.63
758.293	763.821
759.423	761.008
760.551	757.516
761.681	755.243
762.81	752.278
763.938	749.212
765.066	746.431
766.194	743.171
767.321	739.761
768.449	737.582
769.576	734.71
770.703	732.236
771.83	730.404
772.955	727.405
774.081	724.565
775.207	721.935
776.332	719.624
777.457	718.079
778.582	716.122
779.707	714.399
780.831	713.082
781.954	711.815
783.078	709.817
784.201	706.298
785.324	703.586
786.447	701.183
787.569	699.615
788.691	698.169
789.813	697.808
790.935	697.741
792.056	698.2
793.177	695.787
794.297	691.675
795.418	688.449
796.539	686.124
797.658	683.839
798.777	681.259
799.897	679.028
801.016	676.291
802.134	674.02
803.253	672.926
804.371	673.053
805.489	673.773
806.606	672.881
807.723	670.765
808.84	667.365
809.957	665.582
811.073	663.263
812.19	661.092
813.305	658.725
814.421	656.594
815.536	654.759
816.651	654.013
817.766	653.348
818.88	651.894
819.994	650.136
821.108	649.151
822.221	648.488
823.335	647.526
824.448	649.188
825.56	650.896
826.673	653.704
827.784	655.461
828.897	657.887
830.008	660.742
831.119	661.45
832.23	660.073
833.341	658.136
834.451	657.382
835.561	657.177
836.671	656.546
837.78	656.575
838.89	657.415
839.998	656.276
841.108	651.243
842.216	645.491
843.324	639.348
844.431	634.772
845.539	630.074
846.646	628.93
847.753	622.867
848.859	621.288
849.966	620.851
851.071	621.175
852.178	622.096
853.283	625.49
854.388	628.486
855.494	629.481
856.598	629.376
857.703	630.658
858.806	632.044
859.91	631.705
861.014	629.245
862.116	623.231
863.22	621.351
864.322	620.263
865.425	619.185
866.527	618.741
867.628	615.804
868.73	611.012
869.831	615.141
870.932	612.826
872.032	610.601
873.133	608.615
874.233	606.443
875.333	604.76
876.432	603.064
877.532	601.47
878.631	600.45
879.729	599.92
880.828	599.221
881.926	598.595
883.023	594.932
884.121	591.088
885.218	589.43
886.315	588.57
887.412	587.971
888.508	587.37
889.604	586.336
890.699	586.041
891.795	585.442
892.89	584.796
893.985	585.813
895.08	587.731
896.174	589.083
897.268	590.494
898.362	591.039
899.456	591.901
900.549	591.842
901.642	591.563
902.734	590.372
903.827	589.545
904.919	589.106
906.011	589.501
907.102	590.043
908.193	590.924
909.284	592.012
910.375	593.447
911.465	593.247
912.555	593.571
913.645	592.378
914.734	591.498
915.824	591.062
916.913	588.94
918.001	586.106
919.09	584.132
920.177	581.803
921.266	578.904
922.353	574.958
923.44	570.497
924.527	566.996
925.614	563.812
926.7	561.348
927.786	558.749
928.873	556.246
929.958	553.076
931.043	550.277
932.128	547.479
933.213	544.641
934.297	542.17
935.381	539.825
936.465	537.423
937.549	535.158
938.632	533.932
939.715	532.388
940.798	532.03
941.881	531.871
942.962	533.835
944.044	534.492
945.125	534.516
946.207	533.836
947.288	534.048
948.368	533.605
949.449	532.471
950.529	530.767
951.61	527.6
952.689	526.302
953.769	525.631
954.847	524.483
955.926	522.652
957.004	520.372
958.082	519.001
959.16	518.531
960.238	518.092
961.316	518.572
962.392	519.314
963.469	519.749
964.546	520.418
965.622	519.241
966.698	517.056
967.774	515.096
968.849	514.05
969.924	513.19
970.998	512.815
972.073	512.879
973.148	512.287
974.221	511.284
975.295	511.433
976.369	513.534
977.441	515.146
978.514	517.134
979.587	520.67
980.659	524.551
981.731	526.307
982.802	529.166
983.874	533.345
984.945	535.176
986.016	536.57
987.087	536.234
988.157	536.13
989.227	535.37
990.296	534.811
991.366	532.693
992.435	529.016
993.504	527.521
994.573	525.211
995.641	522.422
996.709	521.145
997.777	519.329
998.844	517.814
999.911	516.271
1000.98	515.924
1002.05	519.807
1003.11	519.207
1004.18	517.965
1005.24	515.018
1006.31	512.02
1007.37	508.519
1008.44	504.695
1009.5	500.645
1010.57	497.116
1011.63	493.119
1012.7	489.496
1013.76	486.97
1014.82	484.873
1015.89	483.722
1016.95	481.177
1018.01	479.257
1019.07	476.906
1020.13	473.748
1021.2	471.076
1022.26	468.296
1023.32	465.984
1024.38	463.651
1025.44	461.187
1026.5	458.171
1027.56	455.816
1028.62	454.122
1029.68	453.086
1030.74	452.709
1031.8	452.877
1032.85	451.882
1033.91	449.776
1034.97	449.232
1036.03	448.523
1037.09	448.088
1038.14	447.83
1039.2	447.16
1040.26	446.786
1041.31	447.038
1042.37	447.553
1043.42	448.865
1044.48	450.384
1045.53	451.069
1046.59	452.226
1047.64	453.493
1048.7	454.456
1049.75	455.064
1050.81	452.006
1051.86	448.993
1052.91	445.168
1053.97	441.146
1055.02	437.691
1056.07	435.109
1057.12	432.968
1058.17	432.266
1059.23	433.097
1060.28	434.132
1061.33	434.194
1062.38	435.199
1063.43	435.973
1064.48	436.478
1065.53	437.247
1066.58	437.181
1067.63	438.105
1068.68	438.081
1069.72	438.216
1070.77	436.898
1071.82	435.475
1072.87	433.748
1073.92	432.017
1074.96	429.576
1076.01	427.592
1077.06	425.607
1078.1	423.358
1079.15	420.83
1080.2	417.859
1081.24	414.758
1082.29	412.648
1083.33	411.996
1084.38	411.401
1085.42	410.346
1086.47	410.021
1087.51	410.452
1088.55	410.898
1089.6	410.965
1090.64	410.827
1091.68	410.008
1092.73	410.255
1093.77	410.046
1094.81	410.017
1095.85	409.436
1096.89	409.24
1097.93	408.334
1098.98	406.618
1100.02	405.597
1101.06	405.929
1102.1	407.133
1103.14	408.277
1104.18	409.578
1105.21	410.926
1106.25	412.08
1107.29	412.836
1108.33	413.462
1109.37	413.206
1110.41	413.038
1111.44	412.238
1112.48	411.383
1113.52	409.705
1114.56	406.874
1115.59	402.033
1116.63	399.421
1117.66	395.169
1118.7	392.912
1119.73	391.508
1120.77	391.135
1121.8	391.397
1122.84	392.126
1123.87	392.505
1124.91	392.782
1125.94	392.606
1126.97	392.222
1128.01	392.042
1129.04	392.558
1130.07	393.199
1131.11	393.68
1132.14	392.885
1133.17	391.682
1134.2	393.35
1135.23	395.547
1136.26	397.782
1137.29	401.413
1138.32	404.548
1139.35	408.301
1140.38	411.077
1141.41	414.187
1142.44	417.719
1143.47	420.276
1144.5	421.757
1145.53	424.22
1146.56	424.854
1147.58	427.147
1148.61	427.869
1149.64	429.06
1150.67	430.372
1151.69	433.427
1152.72	436.018
1153.75	439.273
1154.77	443.12
1155.8	445.564
1156.82	446.728
1157.85	445.566
1158.87	443.732
1159.9	440.554
1160.92	436.163
1161.95	430.289
1162.97	423.417
1163.99	415.177
1165.02	405.298
1166.04	396.61
1167.06	389.135
1168.08	383.537
1169.11	378.473
1170.13	375.975
1171.15	374.518
1172.17	373.778
1173.19	374.992
1174.21	377.604
1175.23	381.664
1176.25	385.388
1177.27	389.55
1178.29	393.525
1179.31	395.403
1180.33	397.57
1181.35	398.71
1182.37	399.438
1183.39	399.938
1184.4	399.73
1185.42	398.818
1186.44	398.067
1187.46	397.081
1188.47	395.605
1189.49	394.068
1190.51	392.978
1191.52	391.05
1192.54	385.749
1193.55	380.77
1194.57	375.546
1195.58	371.453
1196.6	367.079
1197.61	361.368
1198.63	358.022
1199.64	355.838
1200.65	354.665
1201.67	352.902
1202.68	351.783
1203.69	350.487
1204.7	350.285
1205.72	351.722
1206.73	353.957
1207.74	356.191
1208.75	358.038
1209.76	360.175
1210.77	360.204
1211.78	360.932
1212.79	361.708
1213.8	362.712
1214.81	363.353
1215.82	364.123
1216.83	363.881
1217.84	362.953
1218.85	361.91
1219.86	361.019
1220.87	360.318
1221.87	360.572
1222.88	360.808
1223.89	360.512
1224.9	361.104
1225.9	361.72
1226.91	361.135
1227.92	359.573
1228.92	355.449
1229.93	353.555
1230.93	351.32
1231.94	348.867
1232.94	344.707
1233.95	340.909
1234.95	338.653
1235.95	335.882
1236.96	333.993
1237.96	331.886
1238.96	330.152
1239.97	328.895
1240.97	327.046
1241.97	324.848
1242.97	322.9
1243.98	321.988
1244.98	321.477
1245.98	320.38
1246.98	319.781
1247.98	318.821
1248.98	318.007
1249.98	317.347
1250.98	316.741
1251.98	316.121
1252.98	316.844
1253.98	316.793
1254.98	317.117
1255.98	317.672
1256.97	318.085
1257.97	317.688
1258.97	315.725
1259.97	315.162
1260.97	313.628
1261.96	314.17
1262.96	315.302
1263.95	317.472
1264.95	317.983
1265.95	318.603
1266.94	317.143
1267.94	316.094
1268.93	312.812
1269.93	310.241
1270.92	307.859
1271.92	307.103
1272.91	308.972
1273.9	312.152
1274.9	307.47
1275.89	305.211
1276.88	304.109
1277.87	301.009
1278.87	300.681
1279.86	301.365
1280.85	302.629
1281.84	303.93
1282.83	306.882
1283.82	309.889
1284.81	315.164
1285.81	319.539
1286.8	319.904
1287.79	319.646
1288.77	318.737
1289.76	318.02
1290.75	316.545
1291.74	315.372
1292.73	311.695
1293.72	309.085
1294.71	305.936
1295.69	303.89
1296.68	301.962
1297.67	300.264
1298.65	299.108
1299.64	301.173
1300.63	302.614
1301.61	302.205
1302.6	301.812
1303.58	301.679
1304.57	301.326
1305.55	301.183
1306.54	299.402
1307.52	296.844
1308.51	294.119
1309.49	291.283
1310.48	289.389
1311.46	287.852
1312.44	286.963
1313.42	285.741
1314.41	284.347
1315.39	283.977
1316.37	284.027
1317.35	285.597
1318.33	287.41
1319.32	289.284
1320.3	290.931
1321.28	295.13
1322.26	300.141
1323.24	306.688
1324.22	310.688
1325.2	315.491
1326.18	318.369
1327.15	320.407
1328.13	320.93
1329.11	319.924
1330.09	314.391
1331.07	306.52
1332.05	300.304
1333.02	296.012
1334	291.68
1334.98	287.252
1335.95	282.899
1336.93	278.449
1337.91	274.974
1338.88	274.763
1339.86	272.342
1340.83	269.746
1341.81	267.687
1342.78	265.951
1343.76	264.84
1344.73	264.507
1345.7	265.009
1346.68	265.683
1347.65	266.126
1348.62	266.177
1349.6	266.185
1350.57	266.261
1351.54	264.32
1352.51	262.366
1353.49	260.912
1354.46	260.311
1355.43	260.039
1356.4	260.786
1357.37	260.801
1358.34	261.305
1359.31	259.934
1360.28	256.91
1361.25	254.535
1362.22	253.173
1363.19	252.182
1364.16	252.018
1365.12	251.677
1366.09	251.006
1367.06	250.302
1368.03	250.291
1369	251.004
1369.96	251.394
1370.93	251.229
1371.9	251.576
1372.86	252.211
1373.83	253.344
1374.79	253.736
1375.76	254.194
1376.73	254.262
1377.69	253.499
1378.66	252.698
1379.62	252.454
1380.58	251.367
1381.55	250.312
1382.51	248.456
1383.48	249.263
1384.44	249.777
1385.4	250.111
1386.36	250.322
1387.33	249.917
1388.29	249.094
1389.25	247.263
1390.21	246.431
1391.17	245.422
1392.13	244.448
1393.09	243.325
1394.06	242.526
1395.01	241.835
1395.97	240.187
1396.93	238.769
1397.89	237.538
1398.85	237.2
1399.81	236.704
1400.77	236.037
1401.73	234.844
1402.69	233.703
1403.64	232.498
1404.6	231.615
1405.56	230.79
1406.52	229.299
1407.47	228.213
1408.43	227.312
1409.39	226.53
1410.34	226.564
1411.3	226.873
1412.25	227.366
1413.21	228.019
1414.16	228.721
1415.12	229.269
1416.07	229.635
1417.03	230.007
1417.98	231.311
1418.93	231.568
1419.89	231.834
1420.84	231.897
1421.79	231.761
1422.74	231.305
1423.7	230.424
1424.65	229.56
1425.6	228.458
1426.55	227.317
1427.5	228.183
1428.45	229.104
1429.4	230.282
1430.35	231.861
1431.3	232.834
1432.25	234.4
1433.2	235.753
1434.15	235.823
1435.1	236.084
1436.05	235.915
1437	235.788
1437.95	234.701
1438.89	234.068
1439.84	233.175
1440.79	232.013
1441.74	230.614
1442.68	229.143
1443.63	227.736
1444.58	226.325
1445.52	225.325
1446.47	225.454
1447.41	225.709
1448.36	225.354
1449.3	224.596
1450.25	223.197
1451.19	222.231
1452.14	220.948
1453.08	219.704
1454.03	219.069
1454.97	218.109
1455.91	217.613
1456.85	216.848
1457.8	216.102
1458.74	215.615
1459.68	215.081
1460.62	213.777
1461.57	212.505
1462.51	211.832
1463.45	210.975
1464.39	210.578
1465.33	210.129
1466.27	209.83
1467.21	209.1
1468.15	208.094
1469.09	207.269
1470.03	207.319
1470.97	207.453
1471.9	207.667
1472.84	208.454
1473.78	208.787
1474.72	209.259
1475.66	208.651
1476.59	208.459
1477.53	208.918
1478.47	210.638
1479.4	211.421
1480.34	211.482
1481.28	211.587
1482.21	211.571
1483.15	211.297
1484.08	210.648
1485.02	209.901
1485.95	208.833
1486.89	208.148
1487.82	208.851
1488.76	208.886
1489.69	210.99
1490.62	213.191
1491.56	214.846
1492.49	213.899
1493.42	212.893
1494.35	211.574
1495.29	210.546
1496.22	210.054
1497.15	208.716
1498.08	206.749
1499.01	204.596
1499.94	203.877
1500.87	203.525
1501.8	202.803
1502.73	202.211
1503.66	202.027
1504.59	202.109
1505.52	205.118
1506.45	206.701
1507.38	208.469
1508.31	210.246
1509.23	213.111
1510.16	216.058
1511.09	218.389
1512.02	220.445
1512.94	221.475
1513.87	219.381
1514.8	221.137
1515.72	224.255
1516.65	228.047
1517.58	232.538
1518.5	237.483
1519.43	243.156
1520.35	249.656
1521.28	256.202
1522.2	264.066
1523.12	269.181
1524.05	273.585
1524.97	277.531
1525.9	280.654
1526.82	280.394
1527.74	281.24
1528.66	280.917
1529.59	279.04
1530.51	276.98
1531.43	274.011
1532.35	270.535
1533.27	265.587
1534.19	260.555
1535.11	254.572
1536.04	248.165
1536.96	241.552
1537.88	235.119
1538.8	228.229
1539.71	222.71
1540.63	217.051
1541.55	211.302
1542.47	207.307
1543.39	204.458
1544.31	202.099
1545.23	201.154
1546.14	200.805
1547.06	201.069
1547.98	201.03
1548.89	201.492
1549.81	201.825
1550.73	202.216
1551.64	202.256
1552.56	202.428
1553.47	201.07
1554.39	199.263
1555.31	197.377
1556.22	194.989
1557.13	194.12
1558.05	191.834
1558.96	189.348
1559.88	186.901
1560.79	184.407
1561.7	181.922
1562.62	179.563
1563.53	177.534
1564.44	175.881
1565.35	174.621
1566.27	173.676
1567.18	172.962
1568.09	172.021
1569	171.46
1569.91	171.402
1570.82	171.619
1571.73	172.088
1572.64	172.295
1573.55	172.52
1574.46	172.926
1575.37	173.357
1576.28	173.609
1577.19	173.48
1578.1	173.332
1579	173.117
1579.91	172.834
1580.82	172.45
1581.73	171.921
1582.63	171.323
1583.54	170.776
1584.45	170.219
1585.35	169.805
1586.26	169.482
1587.17	169.339
1588.07	169.189
1588.98	168.945
1589.88	168.308
1590.79	167.852
1591.69	167.634
1592.6	167.616
1593.5	167.693
1594.4	167.943
1595.31	168.396
1596.21	168.962
1597.11	169.946
1598.02	171.077
1598.92	172.257
1599.82	173.495
1600.72	174.573
1601.63	175.258
1602.53	175.73
1603.43	176.285
1604.33	176.752
1605.23	177.081
1606.13	176.964
1607.03	176.711
1607.93	176.498
1608.83	175.835
1609.73	174.535
1610.63	172.907
1611.53	171.398
1612.43	169.471
1613.32	167.766
1614.22	165.964
1615.12	164.565
1616.02	163.47
1616.92	162.691
1617.81	162.507
1618.71	162.383
1619.61	163.054
1620.5	164.173
1621.4	165.191
1622.29	165.754
1623.19	165.907
1624.08	165.869
1624.98	165.726
1625.87	165.637
1626.77	165.479
1627.66	165.176
1628.56	164.817
1629.45	164.003
1630.34	162.544
1631.24	161.054
1632.13	159.616
1632.84	158.376
1633.77	157.253
1634.7	156.532
1635.63	155.542
1636.56	154.48
1637.49	154.45
1638.42	155.497
1639.34	155.158
1640.27	154.389
1641.2	153.322
1642.13	152.169
1643.05	152.226
1643.98	152.279
1644.91	153.687
1645.83	154.928
1646.76	155.16
1647.68	153.518
1648.61	158.354
1649.54	158.694
1650.46	159.059
1651.39	159.208
1652.31	159.131
1653.23	155.73
1654.16	155.994
1655.08	152.35
1656.01	154.646
1656.93	156.17
1657.85	157.42
1658.78	156.974
1659.7	156.82
1660.62	154.806
1661.54	153.373
1662.47	152.217
1663.39	151.408
1664.31	151.14
1665.23	151.205
1666.15	151.377
1667.07	151.423
1667.99	151.403
1668.92	151.331
1669.84	151.478
1670.76	151.482
1671.68	151.916
1672.6	152.528
1673.52	153.003
1674.43	153.647
1675.35	154.273
1676.27	154.83
1677.19	153.034
1678.11	151.035
1679.03	148.948
1679.95	147.063
1680.86	145.535
1681.78	144.248
1682.7	143.291
1683.61	142.684
1684.53	142.525
1685.45	142.77
1686.36	143.604
1687.28	144.767
1688.2	145.991
1689.11	147.04
1690.03	146.021
1690.94	145.338
1691.86	144.105
1692.77	143.281
1693.69	142.303
1694.6	141.09
1695.52	140.116
1696.43	139.393
1697.34	138.378
1698.26	137.721
1699.17	137.393
1700.08	137.649
1700.99	138.59
1701.91	139.637
1702.82	139.971
1703.73	140.156
1704.64	139.473
1705.55	139.15
1706.47	138.848
1707.38	138.552
1708.29	138.71
1709.2	138.895
1710.11	139.272
1711.02	139.931
1711.93	140.443
1712.84	139.855
1713.75	139.549
1714.66	139.186
1715.57	138.839
1716.48	138.305
1717.39	137.761
1718.29	136.991
1719.2	135.883
1720.11	134.796
1721.02	133.57
1721.93	132.281
1722.83	131.074
1723.74	129.962
1724.65	129.126
1725.55	129.549
1726.46	130.033
1727.37	130.547
1728.27	130.924
1729.18	131.36
1730.08	131.748
1730.99	131.894
1731.89	132.055
1732.8	132.103
1733.7	132.266
1734.61	132.128
1735.51	131.582
1736.42	131.212
1737.32	130.46
1738.22	129.305
1739.13	127.836
1740.03	126.002
1740.93	125.283
1741.83	125.259
1742.74	125.626
1743.64	125.544
1744.54	125.903
1745.44	126.437
1746.34	127.725
1747.24	128
1748.15	128.416
1749.05	128.967
1749.95	128.979
1750.85	128.21
1751.75	127.495
1752.65	127.588
1753.55	127.583
1754.45	127.657
1755.35	127.7
1756.25	127.598
1757.14	127.281
1758.04	126.78
1758.94	126.284
1759.84	125.597
1760.74	124.938
1761.63	124.289
1762.53	123.189
1763.43	121.954
1764.33	121.565
1765.22	121.283
1766.12	121.641
1767.02	121.963
1767.91	122.319
1768.81	122.578
1769.7	122.946
1770.6	123.401
1771.49	124.141
1772.39	124.847
1773.28	125.607
1774.18	126.217
1775.07	126.737
1775.97	126.892
1776.86	126.564
1777.75	126.317
1778.65	126.007
1779.54	125.495
1780.43	124.587
1781.33	124.017
1782.22	123.506
1783.11	122.829
1784	122.341
1784.89	121.744
1785.79	121.178
1786.68	120.649
1787.57	120.255
1788.46	120.068
1789.35	120.081
1790.24	120.036
1791.13	120.103
1792.02	120.051
1792.91	119.587
1793.8	119.559
1794.69	118.81
1795.58	118.25
1796.47	117.634
1797.36	117.163
1798.25	116.738
1799.13	115.136
