Acq. time (s)=	15
Accumulations=	2
Range (cm-¹)=	600...1800
Windows=	2
Autofocus=	Off
AutoExposure=	On
Spike filter=	Multiple accum.
Delay time (s)=	1
Binning=	1
Readout mode=	Signal
DeNoise=	Standard
ICS correction=	Off
Dark correction=	Off
Inst. Process=	Off
Instrument=	XploRA
Detector=	Syncerity
Objective=	x20LWD
Grating=	1200 gr/mm
Filter=	25%
Laser (nm)=	785 
Slit (µm)=	100 
Hole (µm)=	300 
Laser pol=	None
Raman pol=	None
Output=	Camera
StageXY=	Marzhauser
StageZ=	
X (µm)=	11765.7
Y (µm)=	1898.5
Project=	
Sample=	
Site=	
Title=	To20-T
Remark=	
Date=	16.10.2022 00:23
Acquired=	16.10.2022 00:23:10
600.787	625.056
601.956	634.09
603.126	638.547
604.294	643.154
605.463	647.957
606.631	652.807
607.8	657.746
608.967	662.669
610.135	667.45
611.302	672.23
612.468	674.643
613.635	679.889
614.802	680.034
615.968	686.137
617.133	693.778
618.299	700.469
619.464	703.681
620.629	705.876
621.793	708.373
622.958	710.883
624.121	713.241
625.285	714.888
626.448	715.286
627.612	715.221
628.774	715.009
629.937	713.368
631.099	713.404
632.261	717.169
633.423	718.017
634.584	720.328
635.745	721.711
636.906	723.373
638.066	724.72
639.227	725.835
640.386	726
641.546	726.14
642.705	726.323
643.864	726.353
645.023	726.46
646.181	726.71
647.339	727.52
648.497	727.304
649.655	726.617
650.812	726.282
651.969	726.242
653.125	726.972
654.282	728.219
655.438	730.848
656.593	738.049
657.75	741.834
658.905	743.9
660.059	751.057
661.214	758.865
662.368	767.413
663.522	764.324
664.676	747.527
665.83	743.616
666.983	742.544
668.136	741.704
669.288	743.415
670.441	744.897
671.592	748.199
672.744	750.43
673.895	755.129
675.046	759.974
676.197	764.499
677.348	768.756
678.498	772.602
679.648	776.099
680.798	779.288
681.947	781.879
683.096	784.276
684.245	783.941
685.394	783.817
686.542	783.87
687.69	784.095
688.837	784.693
689.984	784.987
691.132	783.645
692.278	780.353
693.425	776.809
694.571	773.752
695.717	770.758
696.863	767.806
698.008	765.071
699.152	762.421
700.298	760.301
701.442	757.36
702.586	757.027
703.73	756.833
704.873	757.204
706.017	757.634
707.16	758.043
708.302	758.386
709.445	758.208
710.586	757.595
711.729	754.374
712.87	753.085
714.012	751.926
715.152	750.886
716.293	749.857
717.433	748.899
718.573	747.838
719.713	747.288
720.853	748.482
721.991	748.388
723.131	748.937
724.269	748.786
725.408	749.183
726.545	746.884
727.683	744.722
728.821	742.129
729.958	736.039
731.095	733.641
732.231	733.027
733.368	734.151
734.503	736.915
735.639	748.756
736.775	757.227
737.91	762.247
739.045	770.946
740.179	773.122
741.313	771.77
742.447	770.048
743.581	768.344
744.714	761.02
745.847	744.756
746.98	744.879
748.113	745.806
749.245	749.62
750.377	748.207
751.509	745.354
752.64	742.743
753.771	740.339
754.902	737.982
756.033	734.605
757.163	729.325
758.293	724.337
759.423	719.519
760.551	714.996
761.681	710.836
762.81	707.036
763.938	703.564
765.066	700.501
766.194	699.002
767.321	697.949
768.449	696.693
769.576	696.212
770.703	695.875
771.83	695.423
772.955	694.63
774.081	693.407
775.207	689.909
776.332	686.794
777.457	683.65
778.582	680.798
779.707	678.336
780.831	676.194
781.954	674.576
783.078	673.72
784.201	673.427
785.324	673.447
786.447	673.426
787.569	670.655
788.691	667.895
789.813	665.504
790.935	661.215
792.056	657.697
793.177	655.065
794.297	653.018
795.418	651.435
796.539	650.323
797.658	649.489
798.777	649.102
799.897	645.054
801.016	643.793
802.134	643.584
803.253	644.58
804.371	646.881
805.489	647.762
806.606	647.539
807.723	645.343
808.84	642.899
809.957	641.12
811.073	639.436
812.19	637.717
813.305	635.413
814.421	635.397
815.536	636.05
816.651	635.36
817.766	633.296
818.88	631.344
819.994	629.682
821.108	628.271
822.221	627.323
823.335	627.307
824.448	626.957
825.56	626.189
826.673	625.254
827.784	624.856
828.897	624.772
830.008	625.107
831.119	625.013
832.23	625.925
833.341	626.148
834.451	625.154
835.561	624.181
836.671	623.198
837.78	621.918
838.89	620.315
839.998	618.702
841.108	617.056
842.216	616.498
843.324	616.033
844.431	615.174
845.539	613.913
846.646	612.234
847.753	610.225
848.859	607.798
849.966	605.206
851.071	602.626
852.178	598.542
853.283	595.592
854.388	592.5
855.494	590.361
856.598	590.009
857.703	590.102
858.806	590.4
859.91	590.922
861.014	591.573
862.116	592.865
863.22	593.493
864.322	592.131
865.425	590.429
866.527	589.152
867.628	587.803
868.73	586.432
869.831	584.721
870.932	582.874
872.032	581.597
873.133	581.372
874.233	579.611
875.333	577.57
876.432	575.47
877.532	573.77
878.631	572.162
879.729	570.638
880.828	568.129
881.926	565.874
883.023	564.015
884.121	562.273
885.218	560.852
886.315	559.606
887.412	558.782
888.508	558.426
889.604	558.734
890.699	559.227
891.795	560.112
892.89	560.797
893.985	561.15
895.08	561.063
896.174	560.204
897.268	559.02
898.362	557.369
899.456	555.845
900.549	555.739
901.642	556.392
902.734	557.809
903.827	559.833
904.919	562.316
906.011	565.085
907.102	564.657
908.193	564.455
909.284	564.375
910.375	565.031
911.465	566.286
912.555	566.804
913.645	566.751
914.734	566.036
915.824	564.825
916.913	561.454
918.001	557.949
919.09	554.897
920.177	551.929
921.266	549.509
922.353	547.153
923.44	543.05
924.527	539.021
925.614	535.2
926.7	531.644
927.786	528.341
928.873	525.627
929.958	523.257
931.043	521.767
932.128	520.507
933.213	519.387
934.297	518.26
935.381	517.175
936.465	516.159
937.549	515.044
938.632	513.719
939.715	512.577
940.798	511.019
941.881	509.374
942.962	507.813
944.044	506.282
945.125	504.835
946.207	503.492
947.288	502.218
948.368	501.128
949.449	500.128
950.529	499.717
951.61	499.442
952.689	499.149
953.769	499.02
954.847	499.001
955.926	499.2
957.004	499.541
958.082	500.081
959.16	500.744
960.238	501.579
961.316	502.574
962.392	503.695
963.469	504.893
964.546	506.128
965.622	506.201
966.698	505.55
967.774	504.542
968.849	503.185
969.924	501.464
970.998	500.409
972.073	499.379
973.148	499.493
974.221	499.917
975.295	500.006
976.369	500.912
977.441	502.239
978.514	503.538
979.587	505.439
980.659	507.159
981.731	509.742
982.802	510.326
983.874	510.503
984.945	509.657
986.016	508.83
987.087	508.24
988.157	507.861
989.227	507.354
990.296	503.425
991.366	501.355
992.435	501.476
993.504	501.334
994.573	499.194
995.641	497.061
996.709	495.695
997.777	494.823
998.844	493.867
999.911	492.804
1000.98	490.436
1002.05	488.058
1003.11	485.583
1004.18	483.235
1005.24	480.929
1006.31	478.709
1007.37	476.431
1008.44	474.246
1009.5	472.177
1010.57	470.048
1011.63	467.581
1012.7	464.069
1013.76	461.648
1014.82	458.394
1015.89	456.204
1016.95	453.359
1018.01	449.987
1019.07	446.331
1020.13	443.171
1021.2	440.425
1022.26	438.261
1023.32	437.207
1024.38	436.703
1025.44	433.953
1026.5	423.772
1027.56	427.251
1028.62	432.693
1029.68	431.683
1030.74	431.311
1031.8	430.69
1032.85	430.312
1033.91	430.336
1034.97	431.138
1036.03	432.534
1037.09	433.971
1038.14	435.292
1039.2	436.398
1040.26	437.284
1041.31	438.175
1042.37	439.143
1043.42	440.397
1044.48	441.848
1045.53	442.035
1046.59	441.319
1047.64	440.465
1048.7	439.443
1049.75	437.506
1050.81	435.227
1051.86	432.808
1052.91	430.154
1053.97	427.688
1055.02	425.227
1056.07	424.488
1057.12	424.241
1058.17	423.904
1059.23	423.758
1060.28	423.804
1061.33	424.06
1062.38	424.852
1063.43	423.944
1064.48	426.055
1065.53	423.785
1066.58	421.54
1067.63	418.453
1068.68	418.412
1069.72	417.242
1070.77	416.449
1071.82	415.846
1072.87	415.567
1073.92	414.046
1074.96	413.312
1076.01	408.371
1077.06	401.237
1078.1	400.901
1079.15	402.935
1080.2	405.328
1081.24	401.36
1082.29	399.074
1083.33	398.648
1084.38	398.979
1085.42	398.311
1086.47	397.256
1087.51	396.046
1088.55	394.824
1089.6	393.474
1090.64	392.193
1091.68	391.082
1092.73	389.567
1093.77	388.238
1094.81	388.649
1095.85	389.696
1096.89	390.97
1097.93	392.28
1098.98	393.134
1100.02	393.496
1101.06	393.689
1102.1	393.679
1103.14	393.818
1104.18	394.283
1105.21	394.637
1106.25	393.995
1107.29	391.752
1108.33	391.541
1109.37	391.022
1110.41	391.081
1111.44	391.787
1112.48	393.14
1113.52	395.408
1114.56	395.297
1115.59	394.689
1116.63	393.451
1117.66	390.149
1118.7	387.653
1119.73	385.482
1120.77	383.678
1121.8	382.295
1122.84	381.226
1123.87	380.555
1124.91	380.246
1125.94	380.151
1126.97	380.709
1128.01	382.112
1129.04	383.007
1130.07	384.114
1131.11	385.552
1132.14	388.419
1133.17	391.119
1134.2	393.713
1135.23	397.727
1136.26	401.701
1137.29	402.706
1138.32	403.487
1139.35	404.142
1140.38	404.86
1141.41	405.968
1142.44	407.38
1143.47	407.36
1144.5	407.853
1145.53	409.679
1146.56	412.33
1147.58	415.517
1148.61	418.675
1149.64	421.837
1150.67	425.061
1151.69	428.101
1152.72	431.09
1153.75	431.904
1154.77	433.722
1155.8	432.435
1156.82	431.296
1157.85	429.032
1158.87	424.498
1159.9	418.854
1160.92	412.492
1161.95	405.934
1162.97	399.056
1163.99	391.921
1165.02	385.04
1166.04	378.576
1167.06	373.05
1168.08	368.313
1169.11	363.815
1170.13	362.562
1171.15	363.817
1172.17	368.313
1173.19	372.85
1174.21	379.356
1175.23	383.627
1176.25	386.252
1177.27	385.25
1178.29	386.005
1179.31	387.503
1180.33	389.304
1181.35	388.984
1182.37	386.661
1183.39	383.982
1184.4	381.744
1185.42	386.295
1186.44	385.1
1187.46	383.116
1188.47	380.51
1189.49	377.218
1190.51	373.7
1191.52	370.13
1192.54	366.528
1193.55	363.019
1194.57	359.612
1195.58	356.296
1196.6	353.241
1197.61	350.362
1198.63	347.484
1199.64	345.017
1200.65	342.911
1201.67	341.44
1202.68	341.249
1203.69	341.527
1204.7	342.325
1205.72	343.66
1206.73	345.102
1207.74	346.232
1208.75	347.012
1209.76	347.615
1210.77	348.142
1211.78	348.546
1212.79	348.706
1213.8	348.266
1214.81	347.648
1215.82	347.101
1216.83	346.655
1217.84	346.523
1218.85	346.799
1219.86	347.374
1220.87	348.091
1221.87	348.926
1222.88	349.578
1223.89	348.679
1224.9	347.006
1225.9	342.962
1226.91	342.121
1227.92	341.37
1228.92	339.376
1229.93	336.067
1230.93	332.953
1231.94	329.982
1232.94	327.08
1233.95	324.361
1234.95	321.833
1235.95	319.488
1236.96	317.374
1237.96	315.442
1238.96	313.783
1239.97	312.296
1240.97	310.971
1241.97	309.817
1242.97	308.868
1243.98	308.035
1244.98	307.489
1245.98	306.959
1246.98	306.973
1247.98	307.152
1248.98	307.408
1249.98	307.759
1250.98	308.158
1251.98	308.556
1252.98	308.308
1253.98	308.282
1254.98	308.281
1255.98	308.171
1256.97	308.097
1257.97	307.997
1258.97	307.801
1259.97	307.46
1260.97	306.971
1261.96	305.814
1262.96	304.06
1263.95	302.433
1264.95	300.975
1265.95	299.378
1266.94	297.87
1267.94	296.313
1268.93	294.831
1269.93	293.464
1270.92	292.064
1271.92	290.975
1272.91	290.291
1273.9	291.66
1274.9	293.079
1275.89	294.04
1276.88	294.87
1277.87	293.957
1278.87	294.839
1279.86	296.302
1280.85	298.433
1281.84	300.306
1282.83	301.866
1283.82	302.542
1284.81	302.373
1285.81	301.04
1286.8	300.379
1287.79	298.115
1288.77	294.979
1289.76	291.424
1290.75	287.559
1291.74	282.62
1292.73	276.715
1293.72	273.312
1294.71	273.636
1295.69	274.659
1296.68	276.983
1297.67	281.901
1298.65	294.05
1299.64	279.559
1300.63	279.127
1301.61	278.858
1302.6	278.481
1303.58	278.014
1304.57	277.864
1305.55	277.151
1306.54	274.939
1307.52	273.274
1308.51	271.936
1309.49	270.891
1310.48	270.351
1311.46	270.353
1312.44	271.17
1313.42	272.73
1314.41	275.637
1315.39	277.506
1316.37	281.002
1317.35	285.383
1318.33	290.131
1319.32	294.949
1320.3	299.356
1321.28	303.519
1322.26	307.652
1323.24	312.665
1324.22	314.007
1325.2	313.488
1326.18	311.515
1327.15	308.469
1328.13	304.286
1329.11	299.317
1330.09	293.974
1331.07	288.296
1332.05	282.621
1333.02	277.272
1334	272.811
1334.98	269.067
1335.95	266.18
1336.93	264.298
1337.91	263.105
1338.88	262.969
1339.86	262.423
1340.83	261.636
1341.81	261.176
1342.78	260.811
1343.76	260.459
1344.73	259.883
1345.7	259.203
1346.68	258.359
1347.65	257.346
1348.62	256.339
1349.6	255.302
1350.57	254.224
1351.54	253.142
1352.51	252.041
1353.49	251.036
1354.46	249.94
1355.43	249.023
1356.4	248.078
1357.37	246.992
1358.34	245.887
1359.31	244.976
1360.28	244.399
1361.25	243.976
1362.22	244.166
1363.19	244.049
1364.16	243.916
1365.12	243.54
1366.09	243.145
1367.06	242.716
1368.03	242.32
1369	241.843
1369.96	241.251
1370.93	240.499
1371.9	239.666
1372.86	238.538
1373.83	237.445
1374.79	236.463
1375.76	236.021
1376.73	235.782
1377.69	235.907
1378.66	236.594
1379.62	237.524
1380.58	238.591
1381.55	239.676
1382.51	240.331
1383.48	241.005
1384.44	241.15
1385.4	241.126
1386.36	241.026
1387.33	240.897
1388.29	240.922
1389.25	240.705
1390.21	240.329
1391.17	239.894
1392.13	239.298
1393.09	238.578
1394.06	237.709
1395.01	236.847
1395.97	236.042
1396.93	234.966
1397.89	233.757
1398.85	232.246
1399.81	230.393
1400.77	226.487
1401.73	224.716
1402.69	222.627
1403.64	221.438
1404.6	221.214
1405.56	221.472
1406.52	222.163
1407.47	223.12
1408.43	223.688
1409.39	224.698
1410.34	224.684
1411.3	223.53
1412.25	221.958
1413.21	220.613
1414.16	219.461
1415.12	219.056
1416.07	218.999
1417.03	219.597
1417.98	219.253
1418.93	218.694
1419.89	218.074
1420.84	217.692
1421.79	217.548
1422.74	217.759
1423.7	218.399
1424.65	219.479
1425.6	221.228
1426.55	223.399
1427.5	226.396
1428.45	229.772
1429.4	231.707
1430.35	233.273
1431.3	235.096
1432.25	236.8
1433.2	238.157
1434.15	239.06
1435.1	239.848
1436.05	238.882
1437	237.302
1437.95	235.27
1438.89	232.862
1439.84	230.117
1440.79	227.158
1441.74	224.312
1442.68	221.926
1443.63	219.915
1444.58	218.424
1445.52	217.593
1446.47	218.208
1447.41	217.99
1448.36	219.146
1449.3	218.349
1450.25	217.613
1451.19	217.07
1452.14	216.575
1453.08	216.107
1454.03	215.635
1454.97	215.237
1455.91	215.039
1456.85	214.86
1457.8	214.562
1458.74	214.038
1459.68	212.57
1460.62	210.967
1461.57	209.965
1462.51	209.108
1463.45	208.392
1464.39	207.782
1465.33	207.752
1466.27	207.875
1467.21	207.739
1468.15	207.335
1469.09	206.517
1470.03	205.65
1470.97	204.731
1471.9	203.722
1472.84	202.615
1473.78	201.49
1474.72	200.382
1475.66	199.309
1476.59	198.415
1477.53	197.654
1478.47	197.237
1479.4	197.398
1480.34	197.767
1481.28	198.308
1482.21	198.942
1483.15	200.052
1484.08	201.179
1485.02	202.105
1485.95	202.626
1486.89	203.044
1487.82	203.148
1488.76	203.123
1489.69	202.666
1490.62	202.08
1491.56	201.418
1492.49	201.203
1493.42	201.22
1494.35	201.235
1495.29	201.228
1496.22	201.072
1497.15	200.62
1498.08	200.186
1499.01	199.621
1499.94	198.942
1500.87	198.281
1501.8	197.75
1502.73	197.351
1503.66	197.243
1504.59	197.443
1505.52	198.029
1506.45	199.149
1507.38	200.784
1508.31	203.094
1509.23	205.65
1510.16	208.569
1511.09	212.708
1512.02	217.238
1512.94	221.713
1513.87	226.155
1514.8	230.303
1515.72	234.493
1516.65	238.464
1517.58	242.343
1518.5	246.125
1519.43	249.898
1520.35	254.074
1521.28	258.486
1522.2	262.719
1523.12	265.777
1524.05	267.938
1524.97	269.183
1525.9	269.473
1526.82	268.883
1527.74	267.442
1528.66	265.189
1529.59	262.046
1530.51	257.92
1531.43	253.121
1532.35	247.724
1533.27	241.743
1534.19	236.291
1535.11	230.211
1536.04	223.982
1536.96	218.05
1537.88	212.749
1538.8	207.913
1539.71	203.915
1540.63	200.728
1541.55	198.385
1542.47	196.725
1543.39	195.649
1544.31	195.097
1545.23	194.902
1546.14	195.044
1547.06	194.94
1547.98	195.102
1548.89	195.148
1549.81	194.785
1550.73	194.156
1551.64	193.425
1552.56	192.269
1553.47	190.573
1554.39	188.79
1555.31	187.1
1556.22	185.481
1557.13	184.042
1558.05	182.619
1558.96	181.307
1559.88	179.972
1560.79	178.618
1561.7	177.277
1562.62	175.831
1563.53	174.653
1564.44	173.497
1565.35	172.56
1566.27	172.042
1567.18	171.613
1568.09	171.491
1569	171.38
1569.91	171.609
1570.82	171.924
1571.73	172.459
1572.64	173.009
1573.55	173.755
1574.46	174.743
1575.37	175.22
1576.28	175.372
1577.19	174.733
1578.1	173.964
1579	173.036
1579.91	172.015
1580.82	170.964
1581.73	169.732
1582.63	168.598
1583.54	167.945
1584.45	167.601
1585.35	167.6
1586.26	167.573
1587.17	167.681
1588.07	167.81
1588.98	168.089
1589.88	168.621
1590.79	169.446
1591.69	170.039
1592.6	171.272
1593.5	172.405
1594.4	173.514
1595.31	174.699
1596.21	175.822
1597.11	176.884
1598.02	177.72
1598.92	178.28
1599.82	178.757
1600.72	178.997
1601.63	179.042
1602.53	178.994
1603.43	178.859
1604.33	178.461
1605.23	178.057
1606.13	177.656
1607.03	177.099
1607.93	176.665
1608.83	176.562
1609.73	176.583
1610.63	176.556
1611.53	176.892
1612.43	177.479
1613.32	178.182
1614.22	178.648
1615.12	178.572
1616.02	178.386
1616.92	177.954
1617.81	174.923
1618.71	173.428
1619.61	172.665
1620.5	171.784
1621.4	170.979
1622.29	170.248
1623.19	169.699
1624.08	169.277
1624.98	168.954
1625.87	168.989
1626.77	169.237
1627.66	169.302
1628.56	169.448
1629.45	169.765
1630.34	170.016
1631.24	170.432
1632.13	170.927
1632.84	171.42
1633.77	172.174
1634.7	172.842
1635.63	172.923
1636.56	172.894
1637.49	171.927
1638.42	170.903
1639.34	170.092
1640.27	169.364
1641.2	168.802
1642.13	168.422
1643.05	168.19
1643.98	168.088
1644.91	167.076
1645.83	166.154
1646.76	165.146
1647.68	164.675
1648.61	164.483
1649.54	164.57
1650.46	164.607
1651.39	164.833
1652.31	165.094
1653.23	165.177
1654.16	164.787
1655.08	164.314
1656.01	163.951
1656.93	164.059
1657.85	163.673
1658.78	163.325
1659.7	162.956
1660.62	162.98
1661.54	162.911
1662.47	162.749
1663.39	162.515
1664.31	162.171
1665.23	162.024
1666.15	161.585
1667.07	160.85
1667.99	160.202
1668.92	159.216
1669.84	158.617
1670.76	158.606
1671.68	158.915
1672.6	159.07
1673.52	159.73
1674.43	160.549
1675.35	161.165
1676.27	160.221
1677.19	159.392
1678.11	158.666
1679.03	158.808
1679.95	159.233
1680.86	159.512
1681.78	159.516
1682.7	159.47
1683.61	159.012
1684.53	158.168
1685.45	157.688
1686.36	157.19
1687.28	156.782
1688.2	156.912
1689.11	157.277
1690.03	157.538
1690.94	157.063
1691.86	156.388
1692.77	155.744
1693.69	155.101
1694.6	154.529
1695.52	154.029
1696.43	153.657
1697.34	153.847
1698.26	153.799
1699.17	153.338
1700.08	152.876
1700.99	151.988
1701.91	150.589
1702.82	149.288
1703.73	147.89
1704.64	146.728
1705.55	146.349
1706.47	146.471
1707.38	146.324
1708.29	146.133
1709.2	146.827
1710.11	148.069
1711.02	149.17
1711.93	148.95
1712.84	149.108
1713.75	149.136
1714.66	148.567
1715.57	147.885
1716.48	146.33
1717.39	144.524
1718.29	142.061
1719.2	139.91
1720.11	138.063
1721.02	136.589
1721.93	136.024
1722.83	135.837
1723.74	136.272
1724.65	137.394
1725.55	137.818
1726.46	138.589
1727.37	139.255
1728.27	140.256
1729.18	140.9
1730.08	141.785
1730.99	142.642
1731.89	142.705
1732.8	142.487
1733.7	142.532
1734.61	142.894
1735.51	142.699
1736.42	142.085
1737.32	140.84
1738.22	140.29
1739.13	139.35
1740.03	138.531
1740.93	138.23
1741.83	138.267
1742.74	138.492
1743.64	138.948
1744.54	139.748
1745.44	139.918
1746.34	140.452
1747.24	140.601
1748.15	140.728
1749.05	140.386
1749.95	140.151
1750.85	140.284
1751.75	139.395
1752.65	138.277
1753.55	137.825
1754.45	137.356
1755.35	136.844
1756.25	136.68
1757.14	136.415
1758.04	135.97
1758.94	135.774
1759.84	135.62
1760.74	135.223
1761.63	134.589
1762.53	134.004
1763.43	132.362
1764.33	131.442
1765.22	130.92
1766.12	130.426
1767.02	130.471
1767.91	131.227
1768.81	132.071
1769.7	133.206
1770.6	133.911
1771.49	134.324
1772.39	134.207
1773.28	133.741
1774.18	133.763
1775.07	132.775
1775.97	131.113
1776.86	130.028
1777.75	129.164
1778.65	128.6
1779.54	127.899
1780.43	127.291
1781.33	126.618
1782.22	125.721
1783.11	124.922
1784	124.407
1784.89	123.968
1785.79	124.009
1786.68	124.094
1787.57	123.909
1788.46	123.916
1789.35	124.163
1790.24	124.318
1791.13	124.426
1792.02	124.243
1792.91	122.842
1793.8	121.802
1794.69	121.39
1795.58	121.385
1796.47	121.592
1797.36	121.338
1798.25	121.977
1799.13	123.137
