Acq. time (s)=	15
Accumulations=	2
Range (cm-¹)=	600...1800
Windows=	2
Autofocus=	Off
AutoExposure=	On
Spike filter=	Multiple accum.
Delay time (s)=	1
Binning=	1
Readout mode=	Signal
DeNoise=	Standard
ICS correction=	Off
Dark correction=	Off
Inst. Process=	Off
Instrument=	XploRA
Detector=	Syncerity
Objective=	x20LWD
Grating=	1200 gr/mm
Filter=	25%
Laser (nm)=	785 
Slit (µm)=	100 
Hole (µm)=	300 
Laser pol=	None
Raman pol=	None
Output=	Camera
StageXY=	Marzhauser
StageZ=	
X (µm)=	-6611.7
Y (µm)=	1086.5
Project=	
Sample=	
Site=	
Title=	To1-T
Remark=	
Date=	14.10.2022 18:37
Acquired=	14.10.2022 18:37:49
600.787	461.343
601.956	471.117
603.126	478.199
604.294	480.067
605.463	476.119
606.631	478.097
607.8	479.535
608.967	482.93
610.135	488.591
611.302	494.989
612.468	501.217
613.635	506.866
614.802	511.622
615.968	515.937
617.133	519.218
618.299	522.224
619.464	522.874
620.629	522.227
621.793	522.01
622.958	522.494
624.121	523.752
625.285	528.027
626.448	529.709
627.612	531.066
628.774	531.983
629.937	532.365
631.099	532.336
632.261	532.027
633.423	531.571
634.584	530.909
635.745	530.221
636.906	529.461
638.066	528.798
639.227	530.098
640.386	531.022
641.546	531.661
642.705	532.132
643.864	532.367
645.023	532.41
646.181	532.184
647.339	531.935
648.497	531.917
649.655	530.893
650.812	529.83
651.969	528.663
653.125	527.78
654.282	527.124
655.438	526.884
656.593	526.884
657.75	527.088
658.905	527.5
660.059	528.091
661.214	528.939
662.368	529.921
663.522	531.2
664.676	532.564
665.83	534.107
666.983	535.256
668.136	536.214
669.288	536.677
670.441	537.169
671.592	537.635
672.744	538.026
673.895	538.672
675.046	539.131
676.197	539.784
677.348	540.136
678.498	540.402
679.648	540.653
680.798	540.844
681.947	541.007
683.096	541.085
684.245	541.144
685.394	541.068
686.542	540.898
687.69	540.543
688.837	540.122
689.984	539.459
691.132	538.781
692.278	538.069
693.425	537.381
694.571	536.721
695.717	536.103
696.863	535.985
698.008	535.654
699.152	535.282
700.298	535.031
701.442	535.21
702.586	535.71
703.73	534.769
704.873	533.22
706.017	531.452
707.16	529.572
708.302	527.738
709.445	525.94
710.586	524.163
711.729	522.371
712.87	520.486
714.012	518.635
715.152	516.852
716.293	514.909
717.433	513.1
718.573	511.485
719.713	510.217
720.853	509.98
721.991	510.683
723.131	512.278
724.269	513.991
725.408	515.718
726.545	517.248
727.683	518.545
728.821	519.604
729.958	520.48
731.095	521.002
732.231	521.33
733.368	521.515
734.503	521.569
735.639	521.478
736.775	521.292
737.91	521.022
739.045	520.717
740.179	520.333
741.313	520.23
742.447	520.207
743.581	520.449
744.714	521.128
745.847	521.369
746.98	521.788
748.113	521.548
749.245	520.671
750.377	519.081
751.509	516.973
752.64	514.405
753.771	511.616
754.902	508.697
756.033	505.928
757.163	503.673
758.293	501.621
759.423	499.733
760.551	498.504
761.681	497.359
762.81	495.984
763.938	493.563
765.066	491.338
766.194	489.179
767.321	487.237
768.449	485.996
769.576	485.053
770.703	484.178
771.83	483.318
772.955	482.07
774.081	480.272
775.207	478.211
776.332	476.621
777.457	475.177
778.582	474.344
779.707	472.122
780.831	469.537
781.954	466.98
783.078	464.837
784.201	462.424
785.324	460.12
786.447	457.79
787.569	455.607
788.691	453.715
789.813	452.263
790.935	457.495
792.056	456.156
793.177	454.487
794.297	452.885
795.418	451.296
796.539	449.882
797.658	448.619
798.777	447.642
799.897	446.831
801.016	446.204
802.134	445.899
803.253	446.126
804.371	447.993
805.489	445.995
806.606	444.585
807.723	443.726
808.84	443.07
809.957	442.518
811.073	441.841
812.19	441.013
813.305	440.526
814.421	439.556
815.536	438.472
816.651	437.263
817.766	436.325
818.88	435.874
819.994	435.294
821.108	434.689
822.221	434.264
823.335	433.908
824.448	433.698
825.56	433.583
826.673	433.582
827.784	434.005
828.897	434.313
830.008	434.636
831.119	435.169
832.23	435.765
833.341	436.582
834.451	437.241
835.561	436.277
836.671	435.43
837.78	434.725
838.89	434.177
839.998	434.319
841.108	432.419
842.216	429.614
843.324	426.968
844.431	424.64
845.539	422.661
846.646	420.93
847.753	419.372
848.859	418.208
849.966	417.074
851.071	416.22
852.178	415.487
853.283	414.791
854.388	414.114
855.494	413.486
856.598	412.716
857.703	412.004
858.806	410.985
859.91	409.937
861.014	408.433
862.116	406.814
863.22	405.249
864.322	403.531
865.425	401.953
866.527	400.428
867.628	399.39
868.73	398.317
869.831	397.177
870.932	396.131
872.032	395.053
873.133	393.943
874.233	393.135
875.333	392.451
876.432	391.816
877.532	391.273
878.631	390.359
879.729	389.328
880.828	387.451
881.926	385.69
883.023	384.765
884.121	384.392
885.218	383.921
886.315	383.415
887.412	382.481
888.508	381.089
889.604	379.581
890.699	378.335
891.795	377.195
892.89	376.21
893.985	375.835
895.08	375.335
896.174	374.978
897.268	374.665
898.362	374.527
899.456	374.461
900.549	374.403
901.642	374.434
902.734	374.458
903.827	374.803
904.919	375.594
906.011	377.056
907.102	378.459
908.193	379.877
909.284	381.064
910.375	382.222
911.465	383.356
912.555	384.265
913.645	384.867
914.734	385.089
915.824	384.756
916.913	383.621
918.001	381.567
919.09	379.019
920.177	376.335
921.266	374.436
922.353	372.471
923.44	370.547
924.527	368.553
925.614	366.63
926.7	364.819
927.786	362.482
928.873	360.105
929.958	357.876
931.043	355.769
932.128	353.909
933.213	352.173
934.297	350.782
935.381	350.034
936.465	349.253
937.549	348.559
938.632	348.374
939.715	348.446
940.798	348.404
941.881	348.452
942.962	347.745
944.044	347.291
945.125	346.956
946.207	346.975
947.288	346.019
948.368	346.805
949.449	347.942
950.529	347.027
951.61	345.978
952.689	343.436
953.769	340.497
954.847	337.47
955.926	334.844
957.004	332.538
958.082	330.224
959.16	328.234
960.238	326.434
961.316	324.933
962.392	323.645
963.469	322.694
964.546	322.733
965.622	323.124
966.698	323.967
967.774	324.828
968.849	325.583
969.924	326.459
970.998	327.311
972.073	327.881
973.148	328.405
974.221	328.988
975.295	329.555
976.369	330.179
977.441	330.891
978.514	331.633
979.587	332.379
980.659	333.37
981.731	335.035
982.802	336.548
983.874	338.125
984.945	339.571
986.016	341.064
987.087	342.146
988.157	342.637
989.227	343.042
990.296	343.312
991.366	343.362
992.435	343.205
993.504	342.907
994.573	342.418
995.641	342.605
996.709	342.241
997.777	341.944
998.844	341.242
999.911	340.364
1000.98	339.269
1002.05	337.652
1003.11	335.879
1004.18	333.822
1005.24	331.565
1006.31	329.061
1007.37	326.433
1008.44	323.614
1009.5	320.681
1010.57	317.421
1011.63	314.117
1012.7	310.799
1013.76	307.916
1014.82	305.099
1015.89	302.626
1016.95	301.227
1018.01	300.133
1019.07	299.266
1020.13	298.474
1021.2	297.783
1022.26	296.758
1023.32	295.798
1024.38	294.969
1025.44	294.193
1026.5	293.437
1027.56	292.799
1028.62	292.2
1029.68	291.396
1030.74	290.602
1031.8	289.798
1032.85	289.497
1033.91	289.379
1034.97	290.053
1036.03	290.676
1037.09	291.43
1038.14	292.222
1039.2	292.899
1040.26	293.57
1041.31	294.632
1042.37	295.667
1043.42	296.345
1044.48	296.828
1045.53	296.403
1046.59	295.519
1047.64	294.121
1048.7	292.447
1049.75	290.591
1050.81	288.571
1051.86	286.232
1052.91	283.892
1053.97	281.85
1055.02	280.31
1056.07	279.61
1057.12	279.686
1058.17	280.379
1059.23	281.421
1060.28	283.329
1061.33	285.238
1062.38	286.905
1063.43	288.133
1064.48	289.008
1065.53	289.459
1066.58	289.548
1067.63	289.254
1068.68	288.611
1069.72	287.606
1070.77	286.103
1071.82	284.241
1072.87	281.799
1073.92	278.928
1074.96	275.723
1076.01	272.525
1077.06	270.732
1078.1	269.447
1079.15	268.921
1080.2	269.302
1081.24	270.667
1082.29	272.276
1083.33	272.558
1084.38	273.412
1085.42	273.972
1086.47	274.012
1087.51	272.843
1088.55	270.922
1089.6	268.425
1090.64	266.113
1091.68	263.106
1092.73	260.313
1093.77	259.693
1094.81	259.18
1095.85	258.618
1096.89	258.682
1097.93	259.204
1098.98	260.418
1100.02	261.95
1101.06	263.802
1102.1	265.95
1103.14	269.53
1104.18	267.484
1105.21	266.098
1106.25	265.891
1107.29	265.981
1108.33	266.507
1109.37	267.004
1110.41	267.23
1111.44	267.255
1112.48	266.958
1113.52	266.403
1114.56	265.141
1115.59	263.609
1116.63	261.755
1117.66	259.757
1118.7	257.554
1119.73	255.232
1120.77	252.835
1121.8	250.303
1122.84	248.317
1123.87	246.192
1124.91	244.236
1125.94	242.788
1126.97	242.359
1128.01	242.28
1129.04	242.84
1130.07	243.89
1131.11	245.158
1132.14	246.707
1133.17	248.609
1134.2	250.475
1135.23	252.589
1136.26	254.631
1137.29	256.748
1138.32	258.827
1139.35	260.71
1140.38	262.099
1141.41	263.351
1142.44	264.091
1143.47	263.522
1144.5	263.171
1145.53	263.018
1146.56	264.005
1147.58	265.365
1148.61	267.374
1149.64	269.983
1150.67	273.033
1151.69	276.234
1152.72	279.397
1153.75	282.335
1154.77	284.34
1155.8	285.639
1156.82	286.062
1157.85	285.658
1158.87	284.25
1159.9	281.828
1160.92	277.454
1161.95	273.695
1162.97	269.428
1163.99	265.168
1165.02	260.699
1166.04	256.268
1167.06	254.241
1168.08	248.423
1169.11	242.43
1170.13	237.802
1171.15	234.2
1172.17	232.502
1173.19	233.373
1174.21	237.069
1175.23	242.93
1176.25	250.441
1177.27	253.557
1178.29	247.646
1179.31	257.72
1180.33	257.992
1181.35	256.361
1182.37	255.848
1183.39	257.625
1184.4	258.783
1185.42	259.697
1186.44	260.113
1187.46	260.175
1188.47	259.725
1189.49	258.552
1190.51	256.923
1191.52	254.445
1192.54	251.425
1193.55	247.797
1194.57	243.92
1195.58	240.056
1196.6	236.147
1197.61	232.563
1198.63	229.533
1199.64	227.087
1200.65	225.083
1201.67	223.486
1202.68	222.826
1203.69	222.985
1204.7	224.047
1205.72	225.208
1206.73	226.25
1207.74	227.397
1208.75	228.394
1209.76	228.933
1210.77	229.36
1211.78	229.633
1212.79	229.767
1213.8	229.923
1214.81	229.968
1215.82	230.009
1216.83	230.098
1217.84	230.211
1218.85	230.554
1219.86	230.675
1220.87	230.947
1221.87	231.14
1222.88	231.324
1223.89	231.243
1224.9	231.088
1225.9	230.755
1226.91	229.963
1227.92	228.927
1228.92	227.729
1229.93	226.371
1230.93	224.991
1231.94	223.51
1232.94	222.028
1233.95	220.456
1234.95	218.918
1235.95	217.624
1236.96	216.239
1237.96	215.069
1238.96	213.923
1239.97	212.47
1240.97	210.745
1241.97	209.144
1242.97	207.594
1243.98	206.408
1244.98	205.66
1245.98	205.103
1246.98	204.303
1247.98	203.136
1248.98	200.88
1249.98	199.362
1250.98	198.746
1251.98	198.417
1252.98	198.595
1253.98	198.929
1254.98	199.368
1255.98	199.909
1256.97	200.315
1257.97	200.689
1258.97	200.953
1259.97	201.294
1260.97	201.381
1261.96	201.115
1262.96	201.102
1263.95	201.138
1264.95	201.149
1265.95	201.054
1266.94	200.713
1267.94	200.081
1268.93	199.284
1269.93	198.396
1270.92	197.418
1271.92	196.311
1272.91	195.235
1273.9	194.053
1274.9	192.86
1275.89	191.727
1276.88	190.155
1277.87	189.146
1278.87	189.84
1279.86	191.183
1280.85	193.04
1281.84	195.082
1282.83	196.92
1283.82	198.38
1284.81	199.249
1285.81	199.278
1286.8	198.132
1287.79	196.362
1288.77	194.9
1289.76	193.742
1290.75	193.601
1291.74	192.745
1292.73	191.914
1293.72	191.119
1294.71	190.501
1295.69	189.628
1296.68	188.845
1297.67	188.063
1298.65	187.263
1299.64	186.475
1300.63	185.732
1301.61	185.041
1302.6	184.39
1303.58	183.827
1304.57	183.306
1305.55	182.842
1306.54	182.434
1307.52	182.107
1308.51	181.833
1309.49	181.689
1310.48	181.592
1311.46	181.647
1312.44	181.757
1313.42	182.092
1314.41	182.548
1315.39	183.032
1316.37	183.565
1317.35	184.252
1318.33	185.007
1319.32	186.138
1320.3	187.807
1321.28	189.982
1322.26	192.002
1323.24	193.947
1324.22	195.338
1325.2	196.453
1326.18	197.61
1327.15	198.209
1328.13	198.333
1329.11	197.786
1330.09	196.064
1331.07	193.306
1332.05	190.134
1333.02	186.943
1334	183.887
1334.98	181.357
1335.95	179.057
1336.93	177.029
1337.91	175.261
1338.88	173.913
1339.86	172.81
1340.83	172.107
1341.81	171.7
1342.78	171.646
1343.76	172.161
1344.73	172.773
1345.7	173.45
1346.68	174.132
1347.65	173.599
1348.62	173.254
1349.6	173.048
1350.57	173.001
1351.54	173.097
1352.51	173.235
1353.49	172.83
1354.46	172.066
1355.43	171.171
1356.4	169.961
1357.37	168.599
1358.34	166.717
1359.31	164.159
1360.28	161.832
1361.25	159.867
1362.22	159.298
1363.19	159.546
1364.16	160.215
1365.12	160.939
1366.09	161.651
1367.06	161.973
1368.03	162.051
1369	162.018
1369.96	161.968
1370.93	161.779
1371.9	161.536
1372.86	161.293
1373.83	160.785
1374.79	160.821
1375.76	161.021
1376.73	161.204
1377.69	161.367
1378.66	161.528
1379.62	161.659
1380.58	161.749
1381.55	161.82
1382.51	161.864
1383.48	161.859
1384.44	161.731
1385.4	161.542
1386.36	161.238
1387.33	161.004
1388.29	160.661
1389.25	160.336
1390.21	159.944
1391.17	159.532
1392.13	159.088
1393.09	158.607
1394.06	158.156
1395.01	157.542
1395.97	156.897
1396.93	156.058
1397.89	155.174
1398.85	154.239
1399.81	153.254
1400.77	152.012
1401.73	150.917
1402.69	149.841
1403.64	148.815
1404.6	148.049
1405.56	147.291
1406.52	146.623
1407.47	146.007
1408.43	145.607
1409.39	145.299
1410.34	145.083
1411.3	145.256
1412.25	145.726
1413.21	146.036
1414.16	146.289
1415.12	146.429
1416.07	146.023
1417.03	145.863
1417.98	145.238
1418.93	144.621
1419.89	144.041
1420.84	143.451
1421.79	142.946
1422.74	142.641
1423.7	142.446
1424.65	142.41
1425.6	142.59
1426.55	143.001
1427.5	143.51
1428.45	144.027
1429.4	144.692
1430.35	145.397
1431.3	146.367
1432.25	147.378
1433.2	148.383
1434.15	149.396
1435.1	150.339
1436.05	151.236
1437	151.897
1437.95	152.199
1438.89	152.177
1439.84	152.135
1440.79	151.929
1441.74	151.591
1442.68	151.162
1443.63	150.678
1444.58	150.143
1445.52	149.513
1446.47	148.883
1447.41	148.259
1448.36	147.687
1449.3	146.949
1450.25	146.13
1451.19	145.249
1452.14	144.326
1453.08	143.385
1454.03	142.522
1454.97	141.634
1455.91	140.802
1456.85	139.991
1457.8	139.268
1458.74	138.937
1459.68	138.283
1460.62	137.598
1461.57	136.831
1462.51	135.855
1463.45	134.463
1464.39	133.039
1465.33	131.414
1466.27	130.468
1467.21	130.321
1468.15	130.32
1469.09	130.508
1470.03	130.731
1470.97	131.108
1471.9	131.562
1472.84	132.093
1473.78	132.577
1474.72	132.935
1475.66	132.661
1476.59	132.029
1477.53	131.646
1478.47	132.06
1479.4	132.691
1480.34	133.563
1481.28	134.697
1482.21	136.151
1483.15	137.819
1484.08	139.553
1485.02	140.188
1485.95	140.919
1486.89	141.411
1487.82	141.569
1488.76	139.541
1489.69	138.926
1490.62	138.392
1491.56	137.827
1492.49	136.815
1493.42	135.165
1494.35	133.642
1495.29	133.272
1496.22	133.402
1497.15	132.75
1498.08	131.994
1499.01	131.353
1499.94	130.806
1500.87	130.567
1501.8	130.338
1502.73	130.104
1503.66	130.061
1504.59	130.081
1505.52	130.293
1506.45	130.678
1507.38	131.261
1508.31	132.071
1509.23	133.068
1510.16	134.336
1511.09	135.897
1512.02	137.929
1512.94	140.079
1513.87	142.427
1514.8	145.018
1515.72	147.889
1516.65	151.076
1517.58	154.647
1518.5	158.744
1519.43	163.04
1520.35	167.171
1521.28	170.663
1522.2	173.71
1523.12	176.247
1524.05	178.325
1524.97	179.754
1525.9	180.704
1526.82	180.921
1527.74	180.634
1528.66	179.755
1529.59	178.078
1530.51	175.967
1531.43	173.45
1532.35	170.64
1533.27	167.55
1534.19	164.731
1535.11	161.577
1536.04	158.57
1536.96	155.351
1537.88	152.054
1538.8	148.224
1539.71	144.403
1540.63	140.878
1541.55	137.647
1542.47	134.815
1543.39	132.895
1544.31	131.455
1545.23	130.644
1546.14	130.199
1547.06	130.228
1547.98	130.85
1548.89	131.55
1549.81	132.232
1550.73	132.512
1551.64	132.563
1552.56	132.204
1553.47	131.69
1554.39	130.853
1555.31	129.622
1556.22	128.274
1557.13	126.56
1558.05	124.81
1558.96	122.922
1559.88	121.043
1560.79	119.65
1561.7	118.321
1562.62	117.369
1563.53	116.478
1564.44	115.736
1565.35	115.072
1566.27	114.474
1567.18	113.947
1568.09	113.404
1569	112.893
1569.91	112.274
1570.82	111.601
1571.73	110.81
1572.64	110.261
1573.55	109.803
1574.46	109.596
1575.37	109.63
1576.28	109.819
1577.19	110.529
1578.1	111.188
1579	111.987
1579.91	112.971
1580.82	113.26
1581.73	113.421
1582.63	113.554
1583.54	113.553
1584.45	113.539
1585.35	113.647
1586.26	113.502
1587.17	113.423
1588.07	113.531
1588.98	113.394
1589.88	113.55
1590.79	113.558
1591.69	113.072
1592.6	112.718
1593.5	112.719
1594.4	112.731
1595.31	112.822
1596.21	112.964
1597.11	113.171
1598.02	113.377
1598.92	113.659
1599.82	114.186
1600.72	114.925
1601.63	115.868
1602.53	116.887
1603.43	117.909
1604.33	118.852
1605.23	118.781
1606.13	118.013
1607.03	118.291
1607.93	118.505
1608.83	118.583
1609.73	118.497
1610.63	118.272
1611.53	117.91
1612.43	117.402
1613.32	116.728
1614.22	115.932
1615.12	115.389
1616.02	114.792
1616.92	114.072
1617.81	113.309
1618.71	112.714
1619.61	112.786
1620.5	113.101
1621.4	113.276
1622.29	113.425
1623.19	113.356
1624.08	112.955
1624.98	112.86
1625.87	112.971
1626.77	112.942
1627.66	112.743
1628.56	112.149
1629.45	111.526
1630.34	110.919
1631.24	110.269
1632.13	109.554
1632.84	108.916
1633.77	108.531
1634.7	107.365
1635.63	106.322
1636.56	105.547
1637.49	105.104
1638.42	104.962
1639.34	105.114
1640.27	105.57
1641.2	106.353
1642.13	107.423
1643.05	108.628
1643.98	109.409
1644.91	109.894
1645.83	109.524
1646.76	108.716
1647.68	108.008
1648.61	107.558
1649.54	107.418
1650.46	107.456
1651.39	107.076
1652.31	106.779
1653.23	106.302
1654.16	105.632
1655.08	105.094
1656.01	104.745
1656.93	104.602
1657.85	104.684
1658.78	105.065
1659.7	106.245
1660.62	106.418
1661.54	106.395
1662.47	106.298
1663.39	104.195
1664.31	106.031
1665.23	105.923
1666.15	105.482
1667.07	105.106
1667.99	104.782
1668.92	104.558
1669.84	103.999
1670.76	104.034
1671.68	104.174
1672.6	104.25
1673.52	104.445
1674.43	104.879
1675.35	105.349
1676.27	105.433
1677.19	105.241
1678.11	105.01
1679.03	104.75
1679.95	104.292
1680.86	103.925
1681.78	103.499
1682.7	103.065
1683.61	102.588
1684.53	102.064
1685.45	101.5
1686.36	100.817
1687.28	100.115
1688.2	99.418
1689.11	98.7275
1690.03	98.0519
1690.94	97.3862
1691.86	96.7312
1692.77	96.0882
1693.69	95.5891
1694.6	95.5301
1695.52	95.4358
1696.43	95.3694
1697.34	95.3808
1698.26	95.5402
1699.17	95.8238
1700.08	96.1208
1700.99	96.4452
1701.91	96.7782
1702.82	97.0988
1703.73	97.4206
1704.64	97.6252
1705.55	97.6525
1706.47	97.5328
1707.38	97.4157
1708.29	96.761
1709.2	96.108
1710.11	95.4421
1711.02	94.7924
1711.93	94.1905
1712.84	93.6885
1713.75	94.305
1714.66	94.2122
1715.57	94.101
1716.48	94.0198
1717.39	93.9994
1718.29	93.9909
1719.2	93.6805
1720.11	92.4684
1721.02	91.9703
1721.93	91.57
1722.83	92.2089
1723.74	92.8604
1724.65	94.0275
1725.55	93.4832
1726.46	92.5695
1727.37	91.7939
1728.27	91.3417
1729.18	90.5029
1730.08	89.6613
1730.99	88.8756
1731.89	88.5312
1732.8	88.186
1733.7	88.049
1734.61	88.2467
1735.51	88.486
1736.42	88.7965
1737.32	89.1685
1738.22	88.6303
1739.13	87.8376
1740.03	87.4836
1740.93	87.5302
1741.83	88.3484
1742.74	89.1621
1743.64	89.657
1744.54	89.9757
1745.44	89.7945
1746.34	89.6226
1747.24	89.4223
1748.15	89.2198
1749.05	89.0136
1749.95	88.7952
1750.85	87.986
1751.75	86.4673
1752.65	85.7474
1753.55	85.2829
1754.45	85.3907
1755.35	86.0575
1756.25	85.4097
1757.14	84.3453
1758.04	83.3188
1758.94	82.3243
1759.84	81.413
1760.74	80.7497
1761.63	80.4307
1762.53	80.6637
1763.43	81.0066
1764.33	81.3831
1765.22	81.7913
1766.12	82.2176
1767.02	82.7575
1767.91	83.0291
1768.81	83.1315
1769.7	83.1964
1770.6	83.1734
1771.49	83.1641
1772.39	83.0804
1773.28	83.0023
1774.18	82.9312
1775.07	82.8621
1775.97	82.7825
1776.86	82.7315
1777.75	82.6562
1778.65	82.6291
1779.54	82.5682
1780.43	82.6017
1781.33	82.7189
1782.22	82.7946
1783.11	82.8682
1784	82.9826
1784.89	83.0957
1785.79	83.2497
1786.68	83.4004
1787.57	83.5918
1788.46	83.7859
1789.35	83.9911
1790.24	84.1988
1791.13	84.3849
1792.02	84.5524
1792.91	84.6903
1793.8	84.7054
1794.69	83.234
1795.58	82.1161
1796.47	80.769
1797.36	79.0904
1798.25	76.5498
1799.13	73.2107
