Acq. time (s)=	15
Accumulations=	2
Range (cm-¹)=	600...1800
Windows=	2
Autofocus=	Off
AutoExposure=	On
Spike filter=	Multiple accum.
Delay time (s)=	1
Binning=	1
Readout mode=	Signal
DeNoise=	Standard
ICS correction=	Off
Dark correction=	Off
Inst. Process=	Off
Instrument=	XploRA
Detector=	Syncerity
Objective=	x20LWD
Grating=	1200 gr/mm
Filter=	25%
Laser (nm)=	785 
Slit (µm)=	100 
Hole (µm)=	300 
Laser pol=	None
Raman pol=	None
Output=	Camera
StageXY=	Marzhauser
StageZ=	
X (µm)=	967.2
Y (µm)=	-951.4
Project=	
Sample=	
Site=	
Title=	To7-T
Remark=	
Date=	14.10.2022 22:36
Acquired=	14.10.2022 22:36:42
600.787	417.633
601.956	419.922
603.126	421.146
604.294	422.848
605.463	425.029
606.631	428.849
607.8	433.183
608.967	437.789
610.135	442.521
611.302	447.221
612.468	451.807
613.635	456.465
614.802	461.122
615.968	465.818
617.133	470.528
618.299	475.476
619.464	480.162
620.629	484.483
621.793	488.196
622.958	490.517
624.121	492.162
625.285	492.826
626.448	492.904
627.612	491.923
628.774	490.744
629.937	489.655
631.099	488.991
632.261	488.65
633.423	488.685
634.584	489.067
635.745	489.712
636.906	490.724
638.066	492.037
639.227	493.71
640.386	495.677
641.546	497.923
642.705	500.844
643.864	503.866
645.023	505.942
646.181	506.362
647.339	506.004
648.497	503.767
649.655	501.793
650.812	500.843
651.969	501.422
653.125	503.6
654.282	507.026
655.438	511.42
656.593	515.721
657.75	519.885
658.905	521.437
660.059	519.997
661.214	519.414
662.368	519.432
663.522	520.533
664.676	521.523
665.83	522.463
666.983	522.92
668.136	523.354
669.288	523.645
670.441	523.532
671.592	523.316
672.744	523.106
673.895	522.732
675.046	523.234
676.197	524.286
677.348	525.382
678.498	526.578
679.648	527.651
680.798	528.809
681.947	530.072
683.096	531.28
684.245	532.529
685.394	533.704
686.542	534.787
687.69	535.815
688.837	536.728
689.984	537.583
691.132	538.259
692.278	538.907
693.425	539.336
694.571	539.595
695.717	539.779
696.863	539.796
698.008	539.511
699.152	538.868
700.298	538.174
701.442	538.157
702.586	537.809
703.73	537.358
704.873	536.579
706.017	535.223
707.16	533.793
708.302	532.328
709.445	530.834
710.586	529.812
711.729	529.346
712.87	529.149
714.012	529.075
715.152	529.589
716.293	530.507
717.433	531.728
718.573	532.847
719.713	533.093
720.853	533.074
721.991	532.743
723.131	532.533
724.269	531.86
725.408	531.065
726.545	530.323
727.683	529.639
728.821	529.649
729.958	529.425
731.095	529.366
732.231	529.591
733.368	530.085
734.503	530.994
735.639	532.675
736.775	534.317
737.91	536.574
739.045	538.936
740.179	541.059
741.313	542.182
742.447	542.825
743.581	543.699
744.714	544.585
745.847	544.74
746.98	543.296
748.113	541.419
749.245	539.183
750.377	537.06
751.509	534.768
752.64	532.037
753.771	528.643
754.902	523.298
756.033	518.681
757.163	514.637
758.293	511.414
759.423	509.645
760.551	508.027
761.681	506.354
762.81	504.063
763.938	501.428
765.066	498.548
766.194	495.432
767.321	492.003
768.449	488.128
769.576	484.462
770.703	482.178
771.83	480.824
772.955	480.479
774.081	480.733
775.207	481.551
776.332	482.623
777.457	483.275
778.582	483.978
779.707	484.38
780.831	484.531
781.954	484.503
783.078	484.344
784.201	484.106
785.324	483.636
786.447	480.845
787.569	477.617
788.691	474.494
789.813	471.552
790.935	468.864
792.056	466.313
793.177	463.971
794.297	461.808
795.418	459.867
796.539	458.127
797.658	456.667
798.777	455.362
799.897	454.291
801.016	453.413
802.134	452.763
803.253	452.416
804.371	452.425
805.489	452.698
806.606	452.714
807.723	451.991
808.84	451.12
809.957	450.137
811.073	449.289
812.19	448.452
813.305	447.593
814.421	446.509
815.536	445.38
816.651	443.993
817.766	442.243
818.88	441.134
819.994	440.529
821.108	440.38
822.221	439.632
823.335	438.589
824.448	437.736
825.56	437.105
826.673	436.616
827.784	436.917
828.897	437.299
830.008	437.722
831.119	438.134
832.23	438.494
833.341	438.668
834.451	438.52
835.561	438.152
836.671	437.385
837.78	436.75
838.89	436.034
839.998	435.174
841.108	434.478
842.216	433.421
843.324	431.445
844.431	429.341
845.539	427.299
846.646	425.333
847.753	423.921
848.859	422.831
849.966	422.09
851.071	421.607
852.178	421.248
853.283	421.445
854.388	421.679
855.494	421.91
856.598	421.71
857.703	421.431
858.806	420.684
859.91	419.639
861.014	418.396
862.116	417.063
863.22	415.619
864.322	414.124
865.425	412.628
866.527	411.24
867.628	410.246
868.73	409.067
869.831	408.305
870.932	407.417
872.032	406.663
873.133	405.843
874.233	404.647
875.333	403.622
876.432	402.664
877.532	401.58
878.631	400.92
879.729	400.339
880.828	399.756
881.926	399.276
883.023	398.73
884.121	398.22
885.218	397.662
886.315	397.125
887.412	396.532
888.508	395.753
889.604	394.9
890.699	394.068
891.795	393.265
892.89	392.266
893.985	391.331
895.08	390.312
896.174	389.349
897.268	388.44
898.362	387.639
899.456	386.917
900.549	386.747
901.642	386.518
902.734	386.573
903.827	386.864
904.919	387.689
906.011	388.807
907.102	390.133
908.193	391.778
909.284	393.353
910.375	394.492
911.465	395.415
912.555	396.069
913.645	396.251
914.734	396.317
915.824	395.113
916.913	393.594
918.001	391.832
919.09	390.031
920.177	388.359
921.266	386.61
922.353	384.937
923.44	383.276
924.527	381.828
925.614	380.444
926.7	379.105
927.786	377.746
928.873	376.288
929.958	374.57
931.043	372.204
932.128	369.711
933.213	367.496
934.297	365.984
935.381	363.709
936.465	361.399
937.549	359.138
938.632	357.328
939.715	355.974
940.798	354.851
941.881	354.138
942.962	353.642
944.044	353.325
945.125	353.378
946.207	353.58
947.288	353.916
948.368	354.386
949.449	354.782
950.529	355.009
951.61	355.038
952.689	354.824
953.769	355.04
954.847	355.212
955.926	355.4
957.004	355.592
958.082	355.611
959.16	355.58
960.238	355.305
961.316	354.846
962.392	354.152
963.469	353.31
964.546	352.239
965.622	350.945
966.698	349.216
967.774	347.291
968.849	344.766
969.924	341.995
970.998	339.192
972.073	337.035
973.148	336.826
974.221	338.031
975.295	340.332
976.369	343.263
977.441	346.217
978.514	349.332
979.587	352.187
980.659	354.987
981.731	357.697
982.802	360.082
983.874	361.862
984.945	362.342
986.016	362.348
987.087	362.16
988.157	361.997
989.227	361.644
990.296	361.097
991.366	360.399
992.435	359.637
993.504	358.598
994.573	357.468
995.641	356.197
996.709	354.836
997.777	353.477
998.844	352.057
999.911	350.686
1000.98	349.593
1002.05	348.291
1003.11	346.994
1004.18	345.629
1005.24	344.317
1006.31	342.935
1007.37	341.855
1008.44	340.948
1009.5	339.785
1010.57	338.141
1011.63	335.785
1012.7	333.278
1013.76	330.635
1014.82	327.557
1015.89	324.788
1016.95	323.071
1018.01	322.017
1019.07	321.077
1020.13	320.1
1021.2	318.744
1022.26	317.283
1023.32	315.841
1024.38	314.894
1025.44	314.223
1026.5	314.04
1027.56	312.338
1028.62	310.407
1029.68	308.472
1030.74	306.569
1031.8	304.859
1032.85	303.38
1033.91	302.226
1034.97	301.237
1036.03	300.42
1037.09	299.789
1038.14	299.356
1039.2	299.058
1040.26	299.059
1041.31	299.427
1042.37	301.623
1043.42	302.864
1044.48	303.626
1045.53	303.754
1046.59	303.628
1047.64	302.919
1048.7	301.839
1049.75	300.286
1050.81	297.769
1051.86	295.008
1052.91	293.173
1053.97	291.838
1055.02	290.991
1056.07	290.778
1057.12	291.151
1058.17	293.507
1059.23	294.062
1060.28	294.338
1061.33	295.117
1062.38	296.075
1063.43	297.432
1064.48	298.677
1065.53	299.679
1066.58	300.153
1067.63	300.159
1068.68	299.753
1069.72	298.297
1070.77	296.567
1071.82	296.253
1072.87	296.654
1073.92	297.44
1074.96	296.994
1076.01	295.965
1077.06	294.671
1078.1	293.268
1079.15	291.7
1080.2	290.197
1081.24	288.697
1082.29	287.198
1083.33	285.796
1084.38	284.402
1085.42	282.975
1086.47	281.619
1087.51	280.415
1088.55	279.343
1089.6	278.651
1090.64	278.292
1091.68	278.654
1092.73	279.134
1093.77	279.616
1094.81	280.178
1095.85	280.498
1096.89	280.782
1097.93	280.967
1098.98	280.96
1100.02	280.677
1101.06	280.122
1102.1	279.423
1103.14	278.481
1104.18	276.984
1105.21	274.058
1106.25	264.783
1107.29	278.027
1108.33	275.571
1109.37	275.403
1110.41	275.137
1111.44	274.846
1112.48	274.431
1113.52	273.939
1114.56	273.348
1115.59	272.61
1116.63	271.863
1117.66	271.086
1118.7	270.245
1119.73	269.41
1120.77	268.479
1121.8	267.575
1122.84	266.553
1123.87	265.527
1124.91	264.424
1125.94	263.347
1126.97	262.198
1128.01	260.984
1129.04	259.857
1130.07	259.213
1131.11	260.54
1132.14	262.082
1133.17	263.549
1134.2	264.73
1135.23	266.335
1136.26	268.318
1137.29	272.544
1138.32	276.043
1139.35	278.902
1140.38	281.461
1141.41	279.473
1142.44	281.227
1143.47	283.382
1144.5	286.088
1145.53	289.071
1146.56	292.249
1147.58	295.587
1148.61	298.857
1149.64	302.112
1150.67	303.789
1151.69	305.778
1152.72	307.757
1153.75	309.69
1154.77	311.793
1155.8	314.134
1156.82	313.49
1157.85	311.434
1158.87	307.722
1159.9	302.382
1160.92	296.243
1161.95	289.756
1162.97	283.697
1163.99	277.858
1165.02	272.38
1166.04	267.548
1167.06	262.928
1168.08	258.973
1169.11	256.112
1170.13	256.03
1171.15	255.228
1172.17	255.231
1173.19	255.56
1174.21	256.602
1175.23	257.998
1176.25	259.763
1177.27	262.251
1178.29	264.953
1179.31	267.483
1180.33	269.921
1181.35	272.076
1182.37	273.698
1183.39	274.768
1184.4	275.397
1185.42	275.436
1186.44	274.838
1187.46	273.359
1188.47	270.96
1189.49	267.996
1190.51	264.369
1191.52	260.399
1192.54	256.492
1193.55	252.897
1194.57	249.828
1195.58	247.301
1196.6	245.431
1197.61	244.398
1198.63	243.943
1199.64	244.38
1200.65	245.003
1201.67	245.732
1202.68	246.221
1203.69	246.545
1204.7	246.811
1205.72	247.016
1206.73	247.098
1207.74	247.129
1208.75	246.931
1209.76	246.585
1210.77	246.179
1211.78	245.191
1212.79	244.222
1213.8	243.212
1214.81	242.245
1215.82	241.444
1216.83	241.894
1217.84	242.532
1218.85	243.536
1219.86	244.593
1220.87	245.645
1221.87	246.114
1222.88	245.721
1223.89	244.973
1224.9	244.119
1225.9	243.089
1226.91	242.247
1227.92	241.147
1228.92	240.029
1229.93	238.55
1230.93	236.943
1231.94	235.361
1232.94	233.846
1233.95	232.342
1234.95	230.981
1235.95	229.485
1236.96	228.634
1237.96	228.267
1238.96	227.7
1239.97	227.127
1240.97	226.426
1241.97	225.564
1242.97	223.918
1243.98	222.369
1244.98	220.822
1245.98	219.293
1246.98	217.83
1247.98	216.4
1248.98	215.244
1249.98	214.206
1250.98	213.726
1251.98	213.451
1252.98	213.354
1253.98	213.303
1254.98	213.355
1255.98	213.364
1256.97	213.487
1257.97	213.48
1258.97	213.487
1259.97	213.467
1260.97	213.43
1261.96	213.342
1262.96	213.137
1263.95	212.935
1264.95	212.545
1265.95	212.15
1266.94	211.566
1267.94	210.896
1268.93	210.184
1269.93	209.345
1270.92	208.418
1271.92	207.547
1272.91	206.759
1273.9	206.016
1274.9	205.406
1275.89	205.228
1276.88	205.505
1277.87	205.908
1278.87	206.444
1279.86	207.345
1280.85	208.384
1281.84	209.653
1282.83	211.106
1283.82	212.779
1284.81	214.471
1285.81	216.202
1286.8	217.425
1287.79	217.355
1288.77	216.516
1289.76	212.197
1290.75	210.612
1291.74	209.049
1292.73	207.397
1293.72	205.501
1294.71	203.632
1295.69	201.944
1296.68	200.523
1297.67	199.277
1298.65	198.537
1299.64	198.266
1300.63	198.666
1301.61	199.171
1302.6	199.664
1303.58	200.105
1304.57	200.21
1305.55	199.228
1306.54	198.005
1307.52	196.807
1308.51	195.665
1309.49	194.644
1310.48	194.18
1311.46	193.825
1312.44	193.691
1313.42	193.765
1314.41	194.05
1315.39	194.558
1316.37	195.287
1317.35	196.377
1318.33	197.671
1319.32	199.322
1320.3	201.148
1321.28	203.348
1322.26	205.81
1323.24	208.437
1324.22	210.811
1325.2	210.843
1326.18	210.346
1327.15	209.444
1328.13	208.094
1329.11	206.772
1330.09	205.253
1331.07	203.323
1332.05	200.984
1333.02	198.593
1334	196.337
1334.98	194.831
1335.95	193.666
1336.93	193.114
1337.91	192.928
1338.88	192.658
1339.86	191.903
1340.83	191.127
1341.81	190.387
1342.78	189.851
1343.76	188.991
1344.73	188.19
1345.7	187.078
1346.68	185.965
1347.65	185.024
1348.62	184.252
1349.6	183.94
1350.57	184.119
1351.54	184.837
1352.51	185.795
1353.49	186.8
1354.46	186.272
1355.43	185.335
1356.4	183.506
1357.37	181.505
1358.34	179.94
1359.31	178.973
1360.28	178.174
1361.25	177.631
1362.22	176.889
1363.19	176.268
1364.16	175.57
1365.12	174.731
1366.09	175.005
1367.06	174.141
1368.03	172.789
1369	171.544
1369.96	171.646
1370.93	171.998
1371.9	172.402
1372.86	172.843
1373.83	173.159
1374.79	173.399
1375.76	173.648
1376.73	173.819
1377.69	173.949
1378.66	174.021
1379.62	174.075
1380.58	174.086
1381.55	173.982
1382.51	173.768
1383.48	173.382
1384.44	172.918
1385.4	172.361
1386.36	171.839
1387.33	171.16
1388.29	170.885
1389.25	171.44
1390.21	171.987
1391.17	171.714
1392.13	171.011
1393.09	170.193
1394.06	169.37
1395.01	168.555
1395.97	167.736
1396.93	167.004
1397.89	166.307
1398.85	165.557
1399.81	164.783
1400.77	163.94
1401.73	163.093
1402.69	162.148
1403.64	161.217
1404.6	160.277
1405.56	159.264
1406.52	158.144
1407.47	156.961
1408.43	155.679
1409.39	154.441
1410.34	153.272
1411.3	152.056
1412.25	150.964
1413.21	150.05
1414.16	149.962
1415.12	150.027
1416.07	150.643
1417.03	152.054
1417.98	154.121
1418.93	156.556
1419.89	157.979
1420.84	158.084
1421.79	158.489
1422.74	158.979
1423.7	159.735
1424.65	160.656
1425.6	161.652
1426.55	161.955
1427.5	161.807
1428.45	161.31
1429.4	160.983
1430.35	160.725
1431.3	160.525
1432.25	160.6
1433.2	161.304
1434.15	162.016
1435.1	162.712
1436.05	163.32
1437	163.765
1437.95	164.058
1438.89	164.115
1439.84	163.93
1440.79	163.528
1441.74	162.83
1442.68	161.989
1443.63	160.678
1444.58	159.2
1445.52	157.708
1446.47	156.226
1447.41	154.834
1448.36	154.233
1449.3	153.417
1450.25	152.667
1451.19	151.905
1452.14	151.231
1453.08	150.632
1454.03	149.768
1454.97	148.819
1455.91	147.932
1456.85	147.085
1457.8	146.467
1458.74	145.867
1459.68	145.747
1460.62	146.249
1461.57	146.76
1462.51	147.28
1463.45	147.835
1464.39	148.32
1465.33	148.723
1466.27	149.007
1467.21	148.649
1468.15	148.56
1469.09	147.865
1470.03	147.155
1470.97	146.324
1471.9	145.457
1472.84	144.654
1473.78	143.796
1474.72	143.125
1475.66	142.875
1476.59	142.798
1477.53	142.712
1478.47	142.939
1479.4	143.106
1480.34	143.343
1481.28	143.6
1482.21	143.784
1483.15	143.967
1484.08	143.556
1485.02	143.349
1485.95	142.41
1486.89	142.087
1487.82	143.098
1488.76	144.672
1489.69	146.848
1490.62	149.469
1491.56	151.544
1492.49	152.334
1493.42	152.063
1494.35	150.523
1495.29	147.317
1496.22	143.674
1497.15	141.779
1498.08	141.172
1499.01	142.156
1499.94	144.007
1500.87	143.632
1501.8	142.689
1502.73	141.948
1503.66	139.346
1504.59	136.647
1505.52	134.167
1506.45	135.583
1507.38	144.445
1508.31	146.504
1509.23	148.667
1510.16	150.801
1511.09	154.493
1512.02	155.847
1512.94	156.817
1513.87	160.17
1514.8	163.873
1515.72	167.641
1516.65	171.072
1517.58	174.285
1518.5	177.303
1519.43	180.093
1520.35	182.623
1521.28	184.988
1522.2	186.978
1523.12	188.628
1524.05	189.908
1524.97	190.785
1525.9	191.237
1526.82	191.285
1527.74	190.729
1528.66	189.429
1529.59	187.595
1530.51	185.055
1531.43	182.041
1532.35	178.653
1533.27	175.07
1534.19	171.843
1535.11	168.273
1536.04	164.777
1536.96	161.513
1537.88	158.221
1538.8	154.885
1539.71	152.049
1540.63	149.665
1541.55	147.913
1542.47	146.591
1543.39	145.84
1544.31	145.182
1545.23	144.598
1546.14	144.252
1547.06	143.536
1547.98	142.573
1548.89	141.569
1549.81	140.496
1550.73	139.392
1551.64	138.434
1552.56	137.503
1553.47	136.493
1554.39	135.495
1555.31	134.436
1556.22	133.371
1557.13	132.137
1558.05	130.743
1558.96	129.202
1559.88	127.111
1560.79	125.149
1561.7	123.273
1562.62	121.569
1563.53	119.884
1564.44	118.604
1565.35	116.577
1566.27	116.906
1567.18	116.839
1568.09	116.454
1569	116.13
1569.91	115.928
1570.82	115.708
1571.73	115.758
1572.64	115.812
1573.55	116.114
1574.46	116.461
1575.37	116.177
1576.28	115.522
1577.19	114.908
1578.1	114.579
1579	114.3
1579.91	114.282
1580.82	114.256
1581.73	113.987
1582.63	112.544
1583.54	111.093
1584.45	109.692
1585.35	108.349
1586.26	108.928
1587.17	113.107
1588.07	113.205
1588.98	112.465
1589.88	111.754
1590.79	112.827
1591.69	113.247
1592.6	113.587
1593.5	113.242
1594.4	112.827
1595.31	112.11
1596.21	111.036
1597.11	109.98
1598.02	109.35
1598.92	108.904
1599.82	108.903
1600.72	109.192
1601.63	109.7
1602.53	110.701
1603.43	111.694
1604.33	112.308
1605.23	112.744
1606.13	113.168
1607.03	113.438
1607.93	113.89
1608.83	114.317
1609.73	114.69
1610.63	114.386
1611.53	112.71
1612.43	111.323
1613.32	109.976
1614.22	109.429
1615.12	112.148
1616.02	111.617
1616.92	110.36
1617.81	109.689
1618.71	108.776
1619.61	108.055
1620.5	107.824
1621.4	107.194
1622.29	106.701
1623.19	106.127
1624.08	105.691
1624.98	105.338
1625.87	105.068
1626.77	105.062
1627.66	105.342
1628.56	106.082
1629.45	106.912
1630.34	107.138
1631.24	107.226
1632.13	107.152
1632.84	107.122
1633.77	107.118
1634.7	106.974
1635.63	106.123
1636.56	105.698
1637.49	105.439
1638.42	105.201
1639.34	104.915
1640.27	104.811
1641.2	103.916
1642.13	103.507
1643.05	103.14
1643.98	103.042
1644.91	102.691
1645.83	102.432
1646.76	102.153
1647.68	102.147
1648.61	102.646
1649.54	102.878
1650.46	103.033
1651.39	102.46
1652.31	101.636
1653.23	100.691
1654.16	100.331
1655.08	100.098
1656.01	100.351
1656.93	100.949
1657.85	101.69
1658.78	102.771
1659.7	103.687
1660.62	104.219
1661.54	104.196
1662.47	103.959
1663.39	103.565
1664.31	103.34
1665.23	102.92
1666.15	102.015
1667.07	101.357
1667.99	100.741
1668.92	100.122
1669.84	99.0956
1670.76	97.7408
1671.68	97.1214
1672.6	96.2094
1673.52	95.8396
1674.43	96.0126
1675.35	95.9091
1676.27	95.7358
1677.19	96.0238
1678.11	95.9497
1679.03	95.8148
1679.95	95.7088
1680.86	95.6131
1681.78	95.5012
1682.7	94.9906
1683.61	94.5543
1684.53	92.9601
1685.45	93.1381
1686.36	93.7249
1687.28	94.3867
1688.2	94.9686
1689.11	95.1856
1690.03	94.1839
1690.94	93.2509
1691.86	92.4961
1692.77	92.2503
1693.69	92.3582
1694.6	92.1566
1695.52	91.4598
1696.43	91.2588
1697.34	91.202
1698.26	90.9795
1699.17	90.8955
1700.08	90.5986
1700.99	90.5667
1701.91	90.4775
1702.82	90.5088
1703.73	90.501
1704.64	90.5257
1705.55	90.3269
1706.47	90.3471
1707.38	90.1691
1708.29	90.1266
1709.2	90.1777
1710.11	89.8866
1711.02	89.7697
1711.93	89.3541
1712.84	89.2151
1713.75	89.3742
1714.66	89.9411
1715.57	90.3513
1716.48	90.6923
1717.39	90.2555
1718.29	89.6976
1719.2	89.5511
1720.11	89.2133
1721.02	89.1053
1721.93	88.9631
1722.83	88.6518
1723.74	88.683
1724.65	88.7169
1725.55	89.0133
1726.46	89.0004
1727.37	88.5988
1728.27	88.6279
1729.18	88.3754
1730.08	86.8865
1730.99	85.7545
1731.89	84.568
1732.8	83.6953
1733.7	83.216
1734.61	82.9856
1735.51	83.0031
1736.42	83.0767
1737.32	83.3717
1738.22	83.3395
1739.13	83.4484
1740.03	83.7452
1740.93	84.0117
1741.83	84.35
1742.74	84.4814
1743.64	84.8801
1744.54	84.8039
1745.44	84.4184
1746.34	84.1152
1747.24	84.1425
1748.15	83.8492
1749.05	83.6488
1749.95	83.9698
1750.85	84.0102
1751.75	84.0875
1752.65	83.7372
1753.55	83.1389
1754.45	82.3741
1755.35	81.7991
1756.25	80.9824
1757.14	80.5562
1758.04	80.4625
1758.94	79.9813
1759.84	78.9463
1760.74	79.2483
1761.63	79.7683
1762.53	80.372
1763.43	80.9937
1764.33	81.986
1765.22	83.1956
1766.12	83.764
1767.02	84.0351
1767.91	84.1996
1768.81	83.9531
1769.7	83.5107
1770.6	82.8568
1771.49	81.8744
1772.39	81.4815
1773.28	81.5574
1774.18	81.4
1775.07	81.3115
1775.97	81.3779
1776.86	81.1072
1777.75	81.3675
1778.65	81.7735
1779.54	82.1854
1780.43	81.3456
1781.33	80.473
1782.22	80.2264
1783.11	80.4222
1784	80.1854
1784.89	79.8603
1785.79	79.6076
1786.68	79.2653
1787.57	79.0839
1788.46	78.7437
1789.35	78.4777
1790.24	77.8712
1791.13	77.8354
1792.02	77.4692
1792.91	76.3539
1793.8	75.084
1794.69	74.2861
1795.58	74.257
1796.47	74.4928
1797.36	75.3433
1798.25	74.4905
1799.13	74.4926
