Acq. time (s)=	15
Accumulations=	2
Range (cm-¹)=	600...1800
Windows=	2
Autofocus=	Off
AutoExposure=	On
Spike filter=	Multiple accum.
Delay time (s)=	1
Binning=	1
Readout mode=	Signal
DeNoise=	Standard
ICS correction=	Off
Dark correction=	Off
Inst. Process=	Off
Instrument=	XploRA
Detector=	Syncerity
Objective=	x20LWD
Grating=	1200 gr/mm
Filter=	25%
Laser (nm)=	785 
Slit (µm)=	100 
Hole (µm)=	300 
Laser pol=	None
Raman pol=	None
Output=	Camera
StageXY=	Marzhauser
StageZ=	
X (µm)=	15845.8
Y (µm)=	3557.8
Project=	
Sample=	
Site=	
Title=	To20-T
Remark=	
Date=	16.10.2022 00:50
Acquired=	16.10.2022 00:50:08
600.787	604.211
601.956	616.493
603.126	627.943
604.294	638.641
605.463	648.135
606.631	656.682
607.8	664.159
608.967	670.663
610.135	676.349
611.302	681.538
612.468	685.419
613.635	688.309
614.802	690.833
615.968	692.945
617.133	695.224
618.299	697.289
619.464	699.206
620.629	701.058
621.793	701.203
622.958	701.523
624.121	702.502
625.285	704.015
626.448	706.083
627.612	708.727
628.774	711.783
629.937	715.031
631.099	717.238
632.261	719.807
633.423	722.604
634.584	725.346
635.745	728.052
636.906	729.692
638.066	731.169
639.227	732.424
640.386	733.302
641.546	734.026
642.705	734.788
643.864	735.728
645.023	736.892
646.181	737.435
647.339	735.894
648.497	734.663
649.655	733.899
650.812	733.711
651.969	733.998
653.125	735.167
654.282	737.205
655.438	739.913
656.593	742.966
657.75	746.427
658.905	750.084
660.059	753.37
661.214	756.727
662.368	759.87
663.522	762.897
664.676	765.002
665.83	766.75
666.983	768.614
668.136	770.584
669.288	772.3
670.441	773.937
671.592	774.837
672.744	775.328
673.895	775.405
675.046	775.27
676.197	775.608
677.348	776.238
678.498	777.713
679.648	778.947
680.798	780
681.947	780.855
683.096	781.193
684.245	781.47
685.394	781.222
686.542	781.304
687.69	781.455
688.837	781.638
689.984	781.796
691.132	782.343
692.278	782.559
693.425	782.798
694.571	782.931
695.717	782.935
696.863	782.432
698.008	780.624
699.152	778.822
700.298	777.088
701.442	775.445
702.586	773.896
703.73	772.415
704.873	771.1
706.017	769.986
707.16	769.124
708.302	768.604
709.445	768.313
710.586	768.382
711.729	768.645
712.87	769.117
714.012	769.372
715.152	769.58
716.293	770.131
717.433	770.223
718.573	770.384
719.713	769.889
720.853	769.111
721.991	768.164
723.131	767.191
724.269	766.377
725.408	764.536
726.545	762.662
727.683	758.156
728.821	757.559
729.958	756.576
731.095	758.223
732.231	760.101
733.368	762.718
734.503	762.201
735.639	765.468
736.775	770.297
737.91	777.774
739.045	780.663
740.179	781.041
741.313	780.43
742.447	779.092
743.581	776.725
744.714	774.019
745.847	769.165
746.98	762.176
748.113	759.756
749.245	757.695
750.377	755.701
751.509	753.74
752.64	749.816
753.771	746.723
754.902	744.468
756.033	742.522
757.163	741.313
758.293	738.374
759.423	733.365
760.551	729.821
761.681	726.234
762.81	722.7
763.938	718.859
765.066	714.756
766.194	710.133
767.321	705.559
768.449	701.289
769.576	697.537
770.703	694.985
771.83	692.961
772.955	691.857
774.081	691.561
775.207	691.825
776.332	692.452
777.457	693.467
778.582	694.331
779.707	695.285
780.831	696.493
781.954	697.763
783.078	695.311
784.201	691.761
785.324	688.56
786.447	685.48
787.569	682.61
788.691	679.893
789.813	677.295
790.935	674.858
792.056	672.483
793.177	670.272
794.297	668.107
795.418	665.913
796.539	663.876
797.658	661.854
798.777	659.934
799.897	658.192
801.016	656.754
802.134	655.695
803.253	654.987
804.371	654.605
805.489	654.401
806.606	655.249
807.723	656.346
808.84	656.82
809.957	654.842
811.073	652.964
812.19	651.304
813.305	649.917
814.421	648.671
815.536	647.639
816.651	646.694
817.766	645.988
818.88	645.419
819.994	645.116
821.108	644.896
822.221	644.791
823.335	644.904
824.448	644.389
825.56	643.425
826.673	642.557
827.784	641.727
828.897	640.957
830.008	640.258
831.119	639.583
832.23	639.229
833.341	638.936
834.451	637.419
835.561	635.846
836.671	634.362
837.78	632.952
838.89	631.589
839.998	630.301
841.108	628.999
842.216	627.852
843.324	626.726
844.431	625.684
845.539	624.71
846.646	623.717
847.753	622.753
848.859	621.72
849.966	620.949
851.071	620.045
852.178	618.73
853.283	615.387
854.388	611.788
855.494	607.996
856.598	603.842
857.703	599.363
858.806	595.467
859.91	591.997
861.014	589.108
862.116	586.987
863.22	586.161
864.322	586.365
865.425	587.203
866.527	588.234
867.628	589.446
868.73	590.078
869.831	590.54
870.932	590.957
872.032	588.11
873.133	586.696
874.233	585.561
875.333	585.968
876.432	586.849
877.532	584.944
878.631	584.28
879.729	583.884
880.828	583.534
881.926	583.203
883.023	582.519
884.121	581.518
885.218	580.217
886.315	578.502
887.412	576.589
888.508	574.677
889.604	572.771
890.699	570.917
891.795	569.499
892.89	568.22
893.985	567.227
895.08	566.387
896.174	565.445
897.268	564.74
898.362	564.469
899.456	564.356
900.549	565.575
901.642	567.668
902.734	569.53
903.827	571.308
904.919	572.303
906.011	572.848
907.102	572.788
908.193	572.476
909.284	571.696
910.375	571.202
911.465	570.997
912.555	570.428
913.645	569.592
914.734	568.416
915.824	566.196
916.913	563.774
918.001	561.064
919.09	558.325
920.177	555.635
921.266	553.61
922.353	551.394
923.44	548.558
924.527	545.559
925.614	542.819
926.7	540.67
927.786	539.009
928.873	537.937
929.958	537.309
931.043	537.238
932.128	537.202
933.213	537.134
934.297	536.531
935.381	535.29
936.465	533.656
937.549	531.764
938.632	529.588
939.715	527.135
940.798	524.554
941.881	522.042
942.962	519.557
944.044	517.049
945.125	514.61
946.207	512.077
947.288	510.066
948.368	508.469
949.449	507.081
950.529	506.026
951.61	504.948
952.689	503.998
953.769	503.072
954.847	502.152
955.926	501.098
957.004	500.138
958.082	499.118
959.16	498.073
960.238	496.968
961.316	495.984
962.392	495.3
963.469	495.928
964.546	496.208
965.622	496.128
966.698	495.808
967.774	495.93
968.849	496.221
969.924	496.709
970.998	497.344
972.073	498.201
973.148	499.209
974.221	500.414
975.295	502.083
976.369	504.092
977.441	506.491
978.514	508.808
979.587	510.942
980.659	512.243
981.731	513.153
982.802	513.708
983.874	513.607
984.945	512.887
986.016	511.619
987.087	509.693
988.157	507.363
989.227	504.676
990.296	501.587
991.366	498.417
992.435	495.715
993.504	493.317
994.573	491.279
995.641	489.846
996.709	489.259
997.777	489.425
998.844	489.639
999.911	489.822
1000.98	489.537
1002.05	488.493
1003.11	487.036
1004.18	485.165
1005.24	482.721
1006.31	480.077
1007.37	476.947
1008.44	473.733
1009.5	470.404
1010.57	467.045
1011.63	463.883
1012.7	461.039
1013.76	458.33
1014.82	455.909
1015.89	453.669
1016.95	451.547
1018.01	449.575
1019.07	447.429
1020.13	445.262
1021.2	443.081
1022.26	440.583
1023.32	438.553
1024.38	436.769
1025.44	435.576
1026.5	434.335
1027.56	433.267
1028.62	432.347
1029.68	431.523
1030.74	430.86
1031.8	430.056
1032.85	429.74
1033.91	429.539
1034.97	429.473
1036.03	429.723
1037.09	429.887
1038.14	430.139
1039.2	430.446
1040.26	430.858
1041.31	431.261
1042.37	431.794
1043.42	432.415
1044.48	433.087
1045.53	433.717
1046.59	434.053
1047.64	433.739
1048.7	432.876
1049.75	431.447
1050.81	429.646
1051.86	427.643
1052.91	425.557
1053.97	423.745
1055.02	422.063
1056.07	420.475
1057.12	418.499
1058.17	416.525
1059.23	414.914
1060.28	413.965
1061.33	414.623
1062.38	415.218
1063.43	415.821
1064.48	416.058
1065.53	415.88
1066.58	415.345
1067.63	414.589
1068.68	413.784
1069.72	412.245
1070.77	410.664
1071.82	409.035
1072.87	407.532
1073.92	406.349
1074.96	405.741
1076.01	405.11
1077.06	404.783
1078.1	404.656
1079.15	404.701
1080.2	405.244
1081.24	405.849
1082.29	406.507
1083.33	407.08
1084.38	406.896
1085.42	405.774
1086.47	404.658
1087.51	403.458
1088.55	402.229
1089.6	400.93
1090.64	399.914
1091.68	398.456
1092.73	397.001
1093.77	395.783
1094.81	394.711
1095.85	393.879
1096.89	393.488
1097.93	393.668
1098.98	394.169
1100.02	394.78
1101.06	395.486
1102.1	396.07
1103.14	396.539
1104.18	396.163
1105.21	395.993
1106.25	395.804
1107.29	395.657
1108.33	395.399
1109.37	394.838
1110.41	393.54
1111.44	391.906
1112.48	390.366
1113.52	388.783
1114.56	387.248
1115.59	386.069
1116.63	384.984
1117.66	383.853
1118.7	382.808
1119.73	381.947
1120.77	380.713
1121.8	379.674
1122.84	378.748
1123.87	378.035
1124.91	377.583
1125.94	377.473
1126.97	378.283
1128.01	379.65
1129.04	381.49
1130.07	383.642
1131.11	385.985
1132.14	388.429
1133.17	390.651
1134.2	392.804
1135.23	394.689
1136.26	396.2
1137.29	397.215
1138.32	398.023
1139.35	398.293
1140.38	398.096
1141.41	397.527
1142.44	396.609
1143.47	395.973
1144.5	395.928
1145.53	397.352
1146.56	399.705
1147.58	402.886
1148.61	406.929
1149.64	411.846
1150.67	417.556
1151.69	424.384
1152.72	427.906
1153.75	429.416
1154.77	429.292
1155.8	428.186
1156.82	425.746
1157.85	417.402
1158.87	411.795
1159.9	404.643
1160.92	397.168
1161.95	391.406
1162.97	386.676
1163.99	383.573
1165.02	381.213
1166.04	377.442
1167.06	375.464
1168.08	373.657
1169.11	372.518
1170.13	372.194
1171.15	372.097
1172.17	371.666
1173.19	371.03
1174.21	371.227
1175.23	371.594
1176.25	371.96
1177.27	372.392
1178.29	372.707
1179.31	372.632
1180.33	372.737
1181.35	372.79
1182.37	372.737
1183.39	372.413
1184.4	371.689
1185.42	370.718
1186.44	369.112
1187.46	367.223
1188.47	365.117
1189.49	362.379
1190.51	359.507
1191.52	356.542
1192.54	353.562
1193.55	351.001
1194.57	349.017
1195.58	347.227
1196.6	345.651
1197.61	344.177
1198.63	342.786
1199.64	341.431
1200.65	340.211
1201.67	338.947
1202.68	337.654
1203.69	336.457
1204.7	335.017
1205.72	333.612
1206.73	332.358
1207.74	331.391
1208.75	331.775
1209.76	332.779
1210.77	333.791
1211.78	334.937
1212.79	336.025
1213.8	337.165
1214.81	338.29
1215.82	339.366
1216.83	340.322
1217.84	341.339
1218.85	342.208
1219.86	342.919
1220.87	343.83
1221.87	344.582
1222.88	345.085
1223.89	345.218
1224.9	345.162
1225.9	344.527
1226.91	343.16
1227.92	341.253
1228.92	339.118
1229.93	336.487
1230.93	333.35
1231.94	329.869
1232.94	325.917
1233.95	321.709
1234.95	317.384
1235.95	313.4
1236.96	309.261
1237.96	305.562
1238.96	302.054
1239.97	298.803
1240.97	295.911
1241.97	293.372
1242.97	291.7
1243.98	290.738
1244.98	290.091
1245.98	289.777
1246.98	289.896
1247.98	290.266
1248.98	290.94
1249.98	291.494
1250.98	292.38
1251.98	293.508
1252.98	294.791
1253.98	296.128
1254.98	297.419
1255.98	298.798
1256.97	299.846
1257.97	300.545
1258.97	300.63
1259.97	300.638
1260.97	300.743
1261.96	300.775
1262.96	300.575
1263.95	299.794
1264.95	297.921
1265.95	295.987
1266.94	293.997
1267.94	291.92
1268.93	290.015
1269.93	288.421
1270.92	287.188
1271.92	286.196
1272.91	285.241
1273.9	284.638
1274.9	284.381
1275.89	284.686
1276.88	285.979
1277.87	288.831
1278.87	290.333
1279.86	291.561
1280.85	292.435
1281.84	293.21
1282.83	293.639
1283.82	293.934
1284.81	293.994
1285.81	293.881
1286.8	293.502
1287.79	292.966
1288.77	292.311
1289.76	291.556
1290.75	290.784
1291.74	289.789
1292.73	289.123
1293.72	288.524
1294.71	288.305
1295.69	288.005
1296.68	287.703
1297.67	287.32
1298.65	286.718
1299.64	285.881
1300.63	284.901
1301.61	283.972
1302.6	282.821
1303.58	282.312
1304.57	282.376
1305.55	282.189
1306.54	281.058
1307.52	279.671
1308.51	278.243
1309.49	276.591
1310.48	274.551
1311.46	270.755
1312.44	268.652
1313.42	267.56
1314.41	267.408
1315.39	268.275
1316.37	270.386
1317.35	273.964
1318.33	278.799
1319.32	285.535
1320.3	290.247
1321.28	294.668
1322.26	298.619
1323.24	301.94
1324.22	304.514
1325.2	306.202
1326.18	306.19
1327.15	304.107
1328.13	298.344
1329.11	293.349
1330.09	287.753
1331.07	282.232
1332.05	276.182
1333.02	270.561
1334	265.503
1334.98	261.244
1335.95	257.709
1336.93	254.968
1337.91	253.036
1338.88	251.719
1339.86	251.052
1340.83	251.368
1341.81	252.496
1342.78	253.858
1343.76	255.398
1344.73	256.229
1345.7	256.511
1346.68	256.565
1347.65	256.43
1348.62	256.053
1349.6	255.515
1350.57	254.713
1351.54	253.756
1352.51	252.598
1353.49	251.373
1354.46	250.072
1355.43	248.612
1356.4	246.773
1357.37	244.933
1358.34	243.082
1359.31	241.264
1360.28	239.582
1361.25	238.278
1362.22	237.279
1363.19	236.314
1364.16	235.576
1365.12	235.028
1366.09	234.593
1367.06	234.684
1368.03	235.09
1369	235.725
1369.96	236.484
1370.93	237.313
1371.9	238.181
1372.86	238.966
1373.83	239.439
1374.79	239.788
1375.76	240.137
1376.73	240.344
1377.69	240.545
1378.66	240.601
1379.62	240.612
1380.58	240.58
1381.55	240.488
1382.51	240.313
1383.48	240.071
1384.44	240.087
1385.4	240.038
1386.36	240.039
1387.33	240.264
1388.29	240.314
1389.25	240.193
1390.21	240.001
1391.17	239.747
1392.13	239.013
1393.09	238.425
1394.06	237.777
1395.01	237.037
1395.97	236.266
1396.93	235.393
1397.89	234.508
1398.85	233.51
1399.81	232.099
1400.77	230.532
1401.73	228.888
1402.69	227.281
1403.64	225.719
1404.6	224.202
1405.56	222.823
1406.52	222.122
1407.47	221.449
1408.43	220.963
1409.39	220.614
1410.34	220.47
1411.3	220.476
1412.25	220.612
1413.21	221.132
1414.16	221.744
1415.12	222.381
1416.07	222.981
1417.03	222.33
1417.98	221.12
1418.93	219.787
1419.89	218.429
1420.84	217.235
1421.79	216.51
1422.74	216.109
1423.7	215.657
1424.65	215.507
1425.6	215.711
1426.55	216.448
1427.5	217.685
1428.45	219.865
1429.4	222.6
1430.35	225.254
1431.3	227.744
1432.25	229.531
1433.2	230.931
1434.15	231.8
1435.1	232.267
1436.05	232.07
1437	231.45
1437.95	230.217
1438.89	228.392
1439.84	225.402
1440.79	221.816
1441.74	218.541
1442.68	216.349
1443.63	214.49
1444.58	212.845
1445.52	211.456
1446.47	210.327
1447.41	209.331
1448.36	208.701
1449.3	208.129
1450.25	207.669
1451.19	207.15
1452.14	206.69
1453.08	206.057
1454.03	205.221
1454.97	204.257
1455.91	202.886
1456.85	201.466
1457.8	200.102
1458.74	199.153
1459.68	198.554
1460.62	198.5
1461.57	198.753
1462.51	199.136
1463.45	199.696
1464.39	200.385
1465.33	201.331
1466.27	202.316
1467.21	203.186
1468.15	204.041
1469.09	204.767
1470.03	205.082
1470.97	205.162
1471.9	205.012
1472.84	204.302
1473.78	203.477
1474.72	202.63
1475.66	201.686
1476.59	200.931
1477.53	200.099
1478.47	199.877
1479.4	199.694
1480.34	199.665
1481.28	199.727
1482.21	199.949
1483.15	200.107
1484.08	200.423
1485.02	200.76
1485.95	201.051
1486.89	201.304
1487.82	201.323
1488.76	201.367
1489.69	201.128
1490.62	200.865
1491.56	200.251
1492.49	199.507
1493.42	198.633
1494.35	197.476
1495.29	196.17
1496.22	194.889
1497.15	193.607
1498.08	192.173
1499.01	190.929
1499.94	190.053
1500.87	189.504
1501.8	189.298
1502.73	189.473
1503.66	190.079
1504.59	190.972
1505.52	192.51
1506.45	194.378
1507.38	196.624
1508.31	199.397
1509.23	202.517
1510.16	206.044
1511.09	210.06
1512.02	214.343
1512.94	219.015
1513.87	223.878
1514.8	228.396
1515.72	233.064
1516.65	237.273
1517.58	240.996
1518.5	244.675
1519.43	248.178
1520.35	251.977
1521.28	255.436
1522.2	258.345
1523.12	260.633
1524.05	261.595
1524.97	261.563
1525.9	260.672
1526.82	259.097
1527.74	256.665
1528.66	253.576
1529.59	250.026
1530.51	246.229
1531.43	242.299
1532.35	238.245
1533.27	234.074
1534.19	230.011
1535.11	226.034
1536.04	221.907
1536.96	218.006
1537.88	214.071
1538.8	210.576
1539.71	207.612
1540.63	205.594
1541.55	202.637
1542.47	200.211
1543.39	198.254
1544.31	197.297
1545.23	197.178
1546.14	197.349
1547.06	197.718
1547.98	198.186
1548.89	198.404
1549.81	198.394
1550.73	198.329
1551.64	198.12
1552.56	197.747
1553.47	196.97
1554.39	195.683
1555.31	193.892
1556.22	191.852
1557.13	190.185
1558.05	187.542
1558.96	184.923
1559.88	182.595
1560.79	180.937
1561.7	179.823
1562.62	178.974
1563.53	178.244
1564.44	177.692
1565.35	177.068
1566.27	176.425
1567.18	175.671
1568.09	174.985
1569	174.299
1569.91	173.606
1570.82	172.931
1571.73	172.308
1572.64	171.75
1573.55	171.372
1574.46	171.132
1575.37	170.913
1576.28	170.931
1577.19	170.994
1578.1	171.203
1579	171.352
1579.91	171.508
1580.82	171.632
1581.73	171.771
1582.63	172.02
1583.54	172.424
1584.45	172.81
1585.35	173.51
1586.26	174.128
1587.17	174.744
1588.07	175.364
1588.98	175.921
1589.88	176.519
1590.79	177.522
1591.69	178.453
1592.6	179.366
1593.5	180.294
1594.4	180.981
1595.31	181.563
1596.21	182.027
1597.11	182.299
1598.02	182.453
1598.92	182.439
1599.82	182.279
1600.72	182.017
1601.63	181.855
1602.53	181.972
1603.43	182.294
1604.33	183.454
1605.23	185.311
1606.13	186.533
1607.03	185.724
1607.93	183.799
1608.83	183.54
1609.73	182.872
1610.63	183.6
1611.53	184.747
1612.43	185.721
1613.32	185.177
1614.22	184.757
1615.12	184.107
1616.02	183.584
1616.92	183.075
1617.81	182.611
1618.71	182.221
1619.61	181.013
1620.5	179.721
1621.4	177.963
1622.29	176.432
1623.19	175.265
1624.08	174.531
1624.98	174.688
1625.87	175.776
1626.77	177.321
1627.66	178.87
1628.56	179.739
1629.45	179.788
1630.34	179.842
1631.24	179.988
1632.13	180.336
1632.84	180.584
1633.77	180.503
1634.7	180.35
1635.63	180.169
1636.56	179.716
1637.49	178.787
1638.42	177.942
1639.34	177.183
1640.27	176.425
1641.2	175.699
1642.13	174.99
1643.05	174.388
1643.98	173.774
1644.91	173.335
1645.83	172.827
1646.76	172.44
1647.68	172.051
1648.61	171.709
1649.54	171.356
1650.46	171.064
1651.39	170.793
1652.31	170.568
1653.23	170.337
1654.16	170.021
1655.08	170.076
1656.01	170.188
1656.93	170.377
1657.85	170.528
1658.78	170.755
1659.7	171.08
1660.62	171.239
1661.54	171.35
1662.47	171.415
1663.39	171.452
1664.31	171.096
1665.23	170.932
1666.15	170.733
1667.07	170.566
1667.99	170.374
1668.92	170.138
1669.84	169.965
1670.76	169.757
1671.68	169.531
1672.6	169.28
1673.52	169.107
1674.43	168.929
1675.35	168.75
1676.27	168.344
1677.19	167.956
1678.11	167.348
1679.03	166.706
1679.95	166.06
1680.86	165.369
1681.78	164.696
1682.7	163.939
1683.61	163.191
1684.53	162.526
1685.45	161.873
1686.36	161.284
1687.28	160.875
1688.2	160.384
1689.11	159.957
1690.03	159.56
1690.94	159.17
1691.86	158.84
1692.77	158.454
1693.69	158.237
1694.6	158.038
1695.52	157.883
1696.43	157.852
1697.34	157.863
1698.26	157.909
1699.17	157.95
1700.08	158.023
1700.99	158.027
1701.91	158.193
1702.82	158.345
1703.73	158.465
1704.64	158.429
1705.55	158.019
1706.47	157.706
1707.38	157.175
1708.29	156.239
1709.2	154.45
1710.11	152.789
1711.02	151.22
1711.93	149.606
1712.84	148.231
1713.75	147.783
1714.66	147.411
1715.57	147.138
1716.48	147.005
1717.39	146.954
1718.29	146.872
1719.2	147.008
1720.11	146.905
1721.02	146.732
1721.93	146.442
1722.83	146.288
1723.74	146.06
1724.65	145.895
1725.55	145.795
1726.46	145.845
1727.37	145.768
1728.27	146.091
1729.18	146.396
1730.08	146.97
1730.99	147.529
1731.89	147.965
1732.8	148.368
1733.7	148.685
1734.61	148.986
1735.51	148.557
1736.42	148.025
1737.32	147.38
1738.22	146.616
1739.13	146.16
1740.03	145.703
1740.93	145.704
1741.83	145.531
1742.74	145.38
1743.64	144.537
1744.54	143.346
1745.44	142.623
1746.34	142.189
1747.24	141.397
1748.15	141.146
1749.05	141.608
1749.95	142.122
1750.85	142.211
1751.75	142.441
1752.65	142.137
1753.55	141.79
1754.45	142.002
1755.35	142.633
1756.25	143.178
1757.14	143.672
1758.04	143.922
1758.94	143.607
1759.84	143.11
1760.74	142.522
1761.63	141.643
1762.53	140.565
1763.43	139.364
1764.33	138.048
1765.22	136.723
1766.12	135.375
1767.02	134.229
1767.91	133.269
1768.81	133.063
1769.7	134.005
1770.6	135.951
1771.49	141.871
1772.39	143.619
1773.28	143.884
1774.18	143.794
1775.07	143.42
1775.97	137.778
1776.86	135.315
1777.75	133.546
1778.65	132.225
1779.54	131.748
1780.43	131.62
1781.33	131.771
1782.22	131.998
1783.11	132.433
1784	132.782
1784.89	132.959
1785.79	133.617
1786.68	134.267
1787.57	134.841
1788.46	135.31
1789.35	135.696
1790.24	135.878
1791.13	135.859
1792.02	135.641
1792.91	135.354
1793.8	134.9
1794.69	134.267
1795.58	133.41
1796.47	132.314
1797.36	130.944
1798.25	128.694
1799.13	126.072
