Acq. time (s)=	15
Accumulations=	2
Range (cm-¹)=	600...1800
Windows=	2
Autofocus=	Off
AutoExposure=	On
Spike filter=	Multiple accum.
Delay time (s)=	1
Binning=	1
Readout mode=	Signal
DeNoise=	Standard
ICS correction=	Off
Dark correction=	Off
Inst. Process=	Off
Instrument=	XploRA
Detector=	Syncerity
Objective=	x20LWD
Grating=	1200 gr/mm
Filter=	25%
Laser (nm)=	785 
Slit (µm)=	100 
Hole (µm)=	300 
Laser pol=	None
Raman pol=	None
Output=	Camera
StageXY=	Marzhauser
StageZ=	
X (µm)=	12895.2
Y (µm)=	1374.4
Project=	
Sample=	
Site=	
Title=	To20-T
Remark=	
Date=	16.10.2022 00:36
Acquired=	16.10.2022 00:36:07
600.787	473.732
601.956	485.56
603.126	494.114
604.294	502.973
605.463	508.801
606.631	512.577
607.8	516.536
608.967	520.615
610.135	524.746
611.302	529.053
612.468	533.443
613.635	537.999
614.802	542.673
615.968	547.422
617.133	552.331
618.299	557.325
619.464	562.428
620.629	566.456
621.793	572.17
622.958	577.494
624.121	583.248
625.285	588.992
626.448	593.135
627.612	596.113
628.774	598.861
629.937	601.227
631.099	602.927
632.261	604.31
633.423	605.354
634.584	606.149
635.745	606.741
636.906	606.121
638.066	605.755
639.227	606.872
640.386	609.182
641.546	610.245
642.705	611.589
643.864	613.499
645.023	616.057
646.181	618.829
647.339	620.529
648.497	621.79
649.655	623.449
650.812	625.162
651.969	626.835
653.125	626.603
654.282	629.393
655.438	631.769
656.593	634.348
657.75	637.002
658.905	640.045
660.059	643.506
661.214	646.87
662.368	649.147
663.522	650.41
664.676	651.173
665.83	652.073
666.983	653.049
668.136	653.202
669.288	653.016
670.441	652.726
671.592	652.545
672.744	652.882
673.895	653.186
675.046	653.516
676.197	653.873
677.348	654.366
678.498	654.867
679.648	655.816
680.798	657.003
681.947	656.815
683.096	656.957
684.245	656.188
685.394	655.519
686.542	655.025
687.69	654.661
688.837	654.505
689.984	654.826
691.132	655.486
692.278	656.856
693.425	658.172
694.571	659.348
695.717	660.048
696.863	660.327
698.008	660.167
699.152	659.506
700.298	658.525
701.442	657.092
702.586	655.214
703.73	653.248
704.873	651.341
706.017	650.471
707.16	649.635
708.302	649.067
709.445	646.948
710.586	645.297
711.729	644.293
712.87	644.508
714.012	644.915
715.152	644.245
716.293	643.363
717.433	642.84
718.573	642.965
719.713	643.043
720.853	643.055
721.991	642.97
723.131	642.706
724.269	641.53
725.408	640.338
726.545	639.215
727.683	638.253
728.821	637.888
729.958	637.916
731.095	638.255
732.231	638.906
733.368	639.731
734.503	641.716
735.639	643.826
736.775	645.869
737.91	647.149
739.045	647.895
740.179	648.159
741.313	647.728
742.447	646.716
743.581	645.181
744.714	643.177
745.847	640.685
746.98	637.815
748.113	634.722
749.245	631.803
750.377	628.718
751.509	626.261
752.64	624.103
753.771	620.871
754.902	617.674
756.033	614.705
757.163	612.052
758.293	609.566
759.423	607.481
760.551	605.587
761.681	604.076
762.81	602.563
763.938	599.976
765.066	597.46
766.194	594.861
767.321	592.635
768.449	590.804
769.576	589.377
770.703	589.421
771.83	589.416
772.955	588.273
774.081	586.685
775.207	583.836
776.332	583.447
777.457	583.006
778.582	579.76
779.707	576.902
780.831	574.585
781.954	573.153
783.078	572.514
784.201	571.327
785.324	569.886
786.447	568.14
787.569	566.432
788.691	564.467
789.813	562.144
790.935	559.628
792.056	558.462
793.177	557.092
794.297	558.988
795.418	557.447
796.539	555.779
797.658	553.905
798.777	553.076
799.897	552.643
801.016	552.481
802.134	552.723
803.253	553.17
804.371	554.552
805.489	553.488
806.606	543.165
807.723	541.112
808.84	538.845
809.957	536.406
811.073	534.336
812.19	533.021
813.305	532.725
814.421	528.829
815.536	527
816.651	525.787
817.766	525.089
818.88	524.654
819.994	524.616
821.108	525.016
822.221	525.612
823.335	526.72
824.448	528.492
825.56	532.154
826.673	536.682
827.784	539.155
828.897	538.951
830.008	536.449
831.119	534.168
832.23	532.635
833.341	532.599
834.451	533.254
835.561	533.937
836.671	534.618
837.78	535.656
838.89	535.093
839.998	531.984
841.108	527.975
842.216	525.031
843.324	525.403
844.431	524.906
845.539	524.059
846.646	522.5
847.753	520.693
848.859	518.122
849.966	515.745
851.071	514.951
852.178	514.466
853.283	514.015
854.388	513.555
855.494	513.104
856.598	512.552
857.703	511.826
858.806	509.987
859.91	508.414
861.014	507.322
862.116	506.085
863.22	504.488
864.322	502.982
865.425	501.912
866.527	498.948
867.628	495.818
868.73	492.579
869.831	489.535
870.932	486.319
872.032	484.577
873.133	483.372
874.233	482.219
875.333	481.647
876.432	482.152
877.532	482.944
878.631	483.172
879.729	483.446
880.828	483.507
881.926	483.444
883.023	483.239
884.121	482.686
885.218	481.813
886.315	480.614
887.412	479.27
888.508	477.844
889.604	476.381
890.699	475.178
891.795	474.147
892.89	473.297
893.985	472.941
895.08	472.86
896.174	471.561
897.268	470.805
898.362	470.578
899.456	471.447
900.549	470.107
901.642	469.836
902.734	469.769
903.827	466.801
904.919	469.287
906.011	470.893
907.102	476.163
908.193	481.355
909.284	485.887
910.375	485.497
911.465	485.354
912.555	485.415
913.645	485.847
914.734	485.034
915.824	482.232
916.913	478.874
918.001	475.054
919.09	470.832
920.177	466.356
921.266	461.714
922.353	456.711
923.44	451.372
924.527	448.667
925.614	445.732
926.7	444.239
927.786	439.674
928.873	445.249
929.958	447.922
931.043	446.705
932.128	445.865
933.213	445.622
934.297	441.967
935.381	439.516
936.465	436.674
937.549	435.066
938.632	433.252
939.715	428.447
940.798	424.607
941.881	422.694
942.962	422.084
944.044	422.928
945.125	422.082
946.207	422.357
947.288	423.631
948.368	424.724
949.449	425.919
950.529	427.002
951.61	428.651
952.689	429.696
953.769	429.631
954.847	428.932
955.926	428.086
957.004	427.57
958.082	427.48
959.16	427.434
960.238	427.352
961.316	427.129
962.392	426.562
963.469	425.73
964.546	424.725
965.622	423.88
966.698	423.553
967.774	422.498
968.849	421.247
969.924	420.617
970.998	420.266
972.073	420.364
973.148	420.524
974.221	420.871
975.295	421.463
976.369	422.539
977.441	423.795
978.514	425.034
979.587	425.99
980.659	427.043
981.731	428.483
982.802	429.684
983.874	430.514
984.945	430.311
986.016	429.555
987.087	428.343
988.157	426.665
989.227	423.945
990.296	421.292
991.366	419.897
992.435	418.817
993.504	418.101
994.573	418.018
995.641	418.681
996.709	419.909
997.777	421.413
998.844	422.551
999.911	423.178
1000.98	422.763
1002.05	420.899
1003.11	418.442
1004.18	415.552
1005.24	412.613
1006.31	409.579
1007.37	406.053
1008.44	402.563
1009.5	398.913
1010.57	395.644
1011.63	393.138
1012.7	391.113
1013.76	389.654
1014.82	388.458
1015.89	386.939
1016.95	386.977
1018.01	387.924
1019.07	387.727
1020.13	385.204
1021.2	381.493
1022.26	377.455
1023.32	373.634
1024.38	371.254
1025.44	369.426
1026.5	368.319
1027.56	371.758
1028.62	372.454
1029.68	370.424
1030.74	368.376
1031.8	366.377
1032.85	365.1
1033.91	364.143
1034.97	363.526
1036.03	363.171
1037.09	363.084
1038.14	363.218
1039.2	363.501
1040.26	363.885
1041.31	364.228
1042.37	364.738
1043.42	365.101
1044.48	365.523
1045.53	365.778
1046.59	366.222
1047.64	366.742
1048.7	367.571
1049.75	368.271
1050.81	368.914
1051.86	369.652
1052.91	367.84
1053.97	364.65
1055.02	358.912
1056.07	354.399
1057.12	351.226
1058.17	349.404
1059.23	349.016
1060.28	349.523
1061.33	353.662
1062.38	359.569
1063.43	360.226
1064.48	360.059
1065.53	358.504
1066.58	355.233
1067.63	353.401
1068.68	351.628
1069.72	351.122
1070.77	350.774
1071.82	350.486
1072.87	350.05
1073.92	349.583
1074.96	349.095
1076.01	348.441
1077.06	347.749
1078.1	346.987
1079.15	346.241
1080.2	345.444
1081.24	344.626
1082.29	343.742
1083.33	342.822
1084.38	341.873
1085.42	340.908
1086.47	339.918
1087.51	338.878
1088.55	337.871
1089.6	336.815
1090.64	335.837
1091.68	334.857
1092.73	333.887
1093.77	333.004
1094.81	332.083
1095.85	331.128
1096.89	330
1097.93	328.765
1098.98	327.011
1100.02	326.528
1101.06	324.23
1102.1	324.794
1103.14	325.764
1104.18	327.609
1105.21	330.162
1106.25	332.729
1107.29	332.934
1108.33	332.736
1109.37	332.201
1110.41	331.274
1111.44	328.903
1112.48	327.58
1113.52	326.637
1114.56	327.656
1115.59	326.695
1116.63	328.434
1117.66	327.768
1118.7	324.984
1119.73	319.016
1120.77	317.008
1121.8	313.884
1122.84	313.98
1123.87	314.684
1124.91	315.624
1125.94	317.22
1126.97	319.163
1128.01	325.198
1129.04	311.462
1130.07	313.592
1131.11	315.457
1132.14	322.198
1133.17	322.148
1134.2	327.147
1135.23	322.786
1136.26	318.879
1137.29	330.666
1138.32	337.991
1139.35	342.018
1140.38	337.301
1141.41	338.292
1142.44	338.612
1143.47	338.799
1144.5	338.821
1145.53	338.642
1146.56	338.735
1147.58	336.674
1148.61	337.743
1149.64	338.677
1150.67	341.344
1151.69	344.365
1152.72	346.975
1153.75	349.661
1154.77	352.685
1155.8	356.094
1156.82	356.987
1157.85	354.12
1158.87	350.142
1159.9	345.332
1160.92	332.154
1161.95	325.784
1162.97	321.161
1163.99	317.099
1165.02	313.614
1166.04	310.505
1167.06	308.393
1168.08	306.978
1169.11	309.438
1170.13	310.566
1171.15	312.324
1172.17	314.294
1173.19	316.336
1174.21	318.293
1175.23	320.207
1176.25	321.657
1177.27	321.813
1178.29	321.146
1179.31	321.429
1180.33	321.336
1181.35	320.717
1182.37	319.493
1183.39	317.957
1184.4	316.007
1185.42	313.93
1186.44	311.891
1187.46	310.771
1188.47	309.829
1189.49	309.024
1190.51	308.002
1191.52	306.655
1192.54	305.273
1193.55	303.824
1194.57	302.396
1195.58	300.924
1196.6	299.428
1197.61	297.943
1198.63	296.511
1199.64	295.179
1200.65	293.906
1201.67	292.684
1202.68	291.603
1203.69	290.566
1204.7	289.674
1205.72	288.858
1206.73	288.31
1207.74	287.925
1208.75	287.71
1209.76	287.998
1210.77	288.459
1211.78	289.358
1212.79	290.318
1213.8	291.262
1214.81	292.15
1215.82	292.961
1216.83	293.237
1217.84	293.432
1218.85	293.398
1219.86	293.215
1220.87	292.831
1221.87	292.25
1222.88	291.549
1223.89	290.501
1224.9	289.34
1225.9	288.131
1226.91	286.85
1227.92	285.656
1228.92	285.12
1229.93	284.442
1230.93	283.679
1231.94	282.76
1232.94	281.583
1233.95	279.667
1234.95	277.201
1235.95	274.643
1236.96	272.123
1237.96	269.894
1238.96	268.098
1239.97	266.732
1240.97	265.46
1241.97	264.613
1242.97	264.059
1243.98	263.823
1244.98	263.234
1245.98	262.622
1246.98	261.959
1247.98	262.348
1248.98	261.512
1249.98	259.995
1250.98	257.805
1251.98	252.18
1252.98	252.253
1253.98	253.275
1254.98	257.127
1255.98	259.877
1256.97	262.579
1257.97	264.471
1258.97	265.045
1259.97	264.541
1260.97	263.71
1261.96	262.86
1262.96	261.416
1263.95	259.604
1264.95	257.852
1265.95	256.168
1266.94	254.626
1267.94	253.341
1268.93	252.24
1269.93	251.349
1270.92	250.681
1271.92	250.286
1272.91	250.155
1273.9	250.296
1274.9	250.758
1275.89	251.605
1276.88	252.645
1277.87	253.743
1278.87	254.81
1279.86	255.188
1280.85	255.319
1281.84	254.986
1282.83	254.251
1283.82	253.084
1284.81	251.626
1285.81	249.93
1286.8	248.315
1287.79	246.301
1288.77	244.088
1289.76	241.982
1290.75	240.553
1291.74	240.008
1292.73	238.349
1293.72	237.269
1294.71	237.201
1295.69	237.774
1296.68	239.146
1297.67	241.298
1298.65	245.562
1299.64	248.189
1300.63	247.241
1301.61	245.006
1302.6	243.054
1303.58	241.033
1304.57	239.208
1305.55	237.578
1306.54	236.128
1307.52	235.051
1308.51	234.186
1309.49	233.653
1310.48	233.239
1311.46	233.095
1312.44	233.142
1313.42	233.387
1314.41	233.356
1315.39	233.363
1316.37	235.529
1317.35	238.426
1318.33	241.745
1319.32	245.292
1320.3	249.125
1321.28	253.114
1322.26	257.832
1323.24	259.687
1324.22	263.778
1325.2	264.004
1326.18	262.858
1327.15	260.774
1328.13	257.67
1329.11	253.712
1330.09	248.772
1331.07	242.865
1332.05	238.872
1333.02	235.06
1334	231.479
1334.98	228.311
1335.95	225.9
1336.93	224.086
1337.91	224.124
1338.88	222.471
1339.86	220.845
1340.83	219.219
1341.81	217.789
1342.78	216.485
1343.76	215.342
1344.73	214.482
1345.7	213.759
1346.68	213.199
1347.65	213.249
1348.62	213.353
1349.6	213.534
1350.57	213.711
1351.54	213.94
1352.51	213.691
1353.49	213.609
1354.46	213.573
1355.43	213.516
1356.4	213.252
1357.37	213.606
1358.34	213.96
1359.31	214.352
1360.28	214.706
1361.25	214.98
1362.22	215.168
1363.19	215.204
1364.16	214.763
1365.12	214.239
1366.09	213.608
1367.06	212.785
1368.03	211.927
1369	210.504
1369.96	209.057
1370.93	207.567
1371.9	206.142
1372.86	204.754
1373.83	203.675
1374.79	202.884
1375.76	202.17
1376.73	201.599
1377.69	201.137
1378.66	201.007
1379.62	200.926
1380.58	201.201
1381.55	201.479
1382.51	201.828
1383.48	202.176
1384.44	202.495
1385.4	202.823
1386.36	202.958
1387.33	202.779
1388.29	202.522
1389.25	202.134
1390.21	201.536
1391.17	200.873
1392.13	199.926
1393.09	198.808
1394.06	197.462
1395.01	196.092
1395.97	194.67
1396.93	193.351
1397.89	193.124
1398.85	193.008
1399.81	193.095
1400.77	193.08
1401.73	192.925
1402.69	192.826
1403.64	192.765
1404.6	192.741
1405.56	192.768
1406.52	192.825
1407.47	192.865
1408.43	192.863
1409.39	192.875
1410.34	192.86
1411.3	192.851
1412.25	192.831
1413.21	192.777
1414.16	192.776
1415.12	192.715
1416.07	192.887
1417.03	192.824
1417.98	192.619
1418.93	192.194
1419.89	190.785
1420.84	189.232
1421.79	187.69
1422.74	186.276
1423.7	185.183
1424.65	184.939
1425.6	185.142
1426.55	186.09
1427.5	187.473
1428.45	189.352
1429.4	191.344
1430.35	193.24
1431.3	195.198
1432.25	196.773
1433.2	198.33
1434.15	199.517
1435.1	200.478
1436.05	201.462
1437	202.242
1437.95	201.159
1438.89	199.675
1439.84	197.771
1440.79	195.398
1441.74	192.941
1442.68	190.197
1443.63	188.539
1444.58	188.072
1445.52	188.372
1446.47	189.949
1447.41	190.095
1448.36	189.935
1449.3	187.208
1450.25	185.109
1451.19	183.676
1452.14	182.621
1453.08	181.765
1454.03	181.665
1454.97	181.647
1455.91	181.631
1456.85	181.635
1457.8	181.533
1458.74	181.245
1459.68	180.928
1460.62	180.605
1461.57	180.235
1462.51	179.828
1463.45	179.387
1464.39	178.901
1465.33	178.396
1466.27	177.825
1467.21	177.28
1468.15	176.675
1469.09	176.097
1470.03	175.458
1470.97	174.84
1471.9	174.202
1472.84	173.707
1473.78	172.874
1474.72	171.94
1475.66	171.005
1476.59	170.11
1477.53	169.276
1478.47	168.532
1479.4	167.854
1480.34	167.889
1481.28	167.923
1482.21	168.16
1483.15	168.713
1484.08	169.46
1485.02	170.513
1485.95	171.76
1486.89	173.33
1487.82	175.21
1488.76	177.197
1489.69	179.504
1490.62	177.637
1491.56	175.606
1492.49	173.777
1493.42	172.094
1494.35	170.645
1495.29	169.238
1496.22	168.12
1497.15	167.462
1498.08	168.085
1499.01	168.072
1499.94	168.124
1500.87	168.19
1501.8	168.088
1502.73	168.464
1503.66	169.217
1504.59	170.182
1505.52	171.164
1506.45	171.967
1507.38	172.838
1508.31	174.053
1509.23	175.479
1510.16	177.313
1511.09	179.662
1512.02	182.372
1512.94	185.484
1513.87	188.859
1514.8	192.459
1515.72	196.254
1516.65	200.266
1517.58	204.294
1518.5	208.438
1519.43	212.312
1520.35	215.702
1521.28	218.397
1522.2	220.236
1523.12	221.08
1524.05	221.207
1524.97	220.803
1525.9	219.813
1526.82	218.534
1527.74	216.768
1528.66	214.603
1529.59	212.165
1530.51	209.48
1531.43	206.537
1532.35	203.493
1533.27	200.687
1534.19	197.509
1535.11	194.122
1536.04	190.643
1536.96	187.025
1537.88	182.73
1538.8	178.075
1539.71	174.477
1540.63	171.673
1541.55	169.624
1542.47	168.377
1543.39	168.047
1544.31	168.534
1545.23	169.522
1546.14	170.325
1547.06	170.943
1547.98	171.27
1548.89	171.328
1549.81	171.08
1550.73	170.546
1551.64	169.675
1552.56	168.54
1553.47	167.194
1554.39	165.651
1555.31	163.906
1556.22	161.963
1557.13	160.046
1558.05	157.861
1558.96	155.645
1559.88	153.583
1560.79	151.719
1561.7	150.085
1562.62	148.672
1563.53	147.456
1564.44	146.444
1565.35	145.699
1566.27	145.397
1567.18	145.297
1568.09	145.305
1569	145.43
1569.91	145.634
1570.82	145.936
1571.73	146.32
1572.64	146.763
1573.55	147.25
1574.46	147.604
1575.37	147.867
1576.28	148.173
1577.19	148.373
1578.1	148.329
1579	148.146
1579.91	148.016
1580.82	148.121
1581.73	148.391
1582.63	148.72
1583.54	149.262
1584.45	150.397
1585.35	151.727
1586.26	152.757
1587.17	153.406
1588.07	153.029
1588.98	152.881
1589.88	153.014
1590.79	153.195
1591.69	153.265
1592.6	153.223
1593.5	153.041
1594.4	152.96
1595.31	153.011
1596.21	153.23
1597.11	153.36
1598.02	153.593
1598.92	154.395
1599.82	155.363
1600.72	156.099
1601.63	156.454
1602.53	156.569
1603.43	156.524
1604.33	156.409
1605.23	156.43
1606.13	156.48
1607.03	156.563
1607.93	156.601
1608.83	156.48
1609.73	156.149
1610.63	155.747
1611.53	155.278
1612.43	154.898
1613.32	154.878
1614.22	154.34
1615.12	153.757
1616.02	152.995
1616.92	152.287
1617.81	151.705
1618.71	151.199
1619.61	150.797
1620.5	150.422
1621.4	150.198
1622.29	150.148
1623.19	150.257
1624.08	150.444
1624.98	150.662
1625.87	150.937
1626.77	151.218
1627.66	151.491
1628.56	151.74
1629.45	151.866
1630.34	151.871
1631.24	151.786
1632.13	151.644
1632.84	151.38
1633.77	150.805
1634.7	150.021
1635.63	149.095
1636.56	148.04
1637.49	146.749
1638.42	145.952
1639.34	145.436
1640.27	145.926
1641.2	146.531
1642.13	147.163
1643.05	147.779
1643.98	148.441
1644.91	149.074
1645.83	149.608
1646.76	150.172
1647.68	150.684
1648.61	151.027
1649.54	150.132
1650.46	148.695
1651.39	145.535
1652.31	143.604
1653.23	141.673
1654.16	140.017
1655.08	138.584
1656.01	137.844
1656.93	140.685
1657.85	141.057
1658.78	141.627
1659.7	142.334
1660.62	143.11
1661.54	143.965
1662.47	144.871
1663.39	145.931
1664.31	146.88
1665.23	147.621
1666.15	147.58
1667.07	146.946
1667.99	147.064
1668.92	145.881
1669.84	144.454
1670.76	142.863
1671.68	141.403
1672.6	140.03
1673.52	138.933
1674.43	138.136
1675.35	137.621
1676.27	137.585
1677.19	138.205
1678.11	139.277
1679.03	140.546
1679.95	141.519
1680.86	142.31
1681.78	142.873
1682.7	143.341
1683.61	143.63
1684.53	143.572
1685.45	143.069
1686.36	142.099
1687.28	140.778
1688.2	139.261
1689.11	137.682
1690.03	136.28
1690.94	135.163
1691.86	134.138
1692.77	133.768
1693.69	133.513
1694.6	133.522
1695.52	133.569
1696.43	133.586
1697.34	133.69
1698.26	133.755
1699.17	133.217
1700.08	132.672
1700.99	132.477
1701.91	132.719
1702.82	131.812
1703.73	130.564
1704.64	129.47
1705.55	128.603
1706.47	127.808
1707.38	126.892
1708.29	126.369
1709.2	125.972
1710.11	125.665
1711.02	125.486
1711.93	125.298
1712.84	125.199
1713.75	125.106
1714.66	125.038
1715.57	125.018
1716.48	124.996
1717.39	125.04
1718.29	125.064
1719.2	125.009
1720.11	125.083
1721.02	125.079
1721.93	124.762
1722.83	124.643
1723.74	125.103
1724.65	125.936
1725.55	126.207
1726.46	126.629
1727.37	127.089
1728.27	127.586
1729.18	128.178
1730.08	128.458
1730.99	128.64
1731.89	128.107
1732.8	127.796
1733.7	127.585
1734.61	127.243
1735.51	126.908
1736.42	126.535
1737.32	126.138
1738.22	125.665
1739.13	124.429
1740.03	123.324
1740.93	122.66
1741.83	122.067
1742.74	121.667
1743.64	121.697
1744.54	121.772
1745.44	121.645
1746.34	122.265
1747.24	122.66
1748.15	123.499
1749.05	123.3
1749.95	123.014
1750.85	122.583
1751.75	122.167
1752.65	121.57
1753.55	120.958
1754.45	120.27
1755.35	119.322
1756.25	118.388
1757.14	117.501
1758.04	116.785
1758.94	116.315
1759.84	116.962
1760.74	117.572
1761.63	118.393
1762.53	118.909
1763.43	119.005
1764.33	119.099
1765.22	119.098
1766.12	119.065
1767.02	118.989
1767.91	118.88
1768.81	118.827
1769.7	118.728
1770.6	118.58
1771.49	118.501
1772.39	118.243
1773.28	117.958
1774.18	117.661
1775.07	117.336
1775.97	117.019
1776.86	116.715
1777.75	116.403
1778.65	116.095
1779.54	115.775
1780.43	115.446
1781.33	115.144
1782.22	114.819
1783.11	114.556
1784	114.269
1784.89	114.062
1785.79	113.837
1786.68	113.833
1787.57	113.748
1788.46	113.66
1789.35	113.597
1790.24	113.505
1791.13	113.419
1792.02	113.316
1792.91	113.21
1793.8	113.128
1794.69	112.184
1795.58	110.495
1796.47	110.026
1797.36	109.134
1798.25	108.375
1799.13	107.988
