Acq. time (s)=	15
Accumulations=	2
Range (cm-¹)=	600...1800
Windows=	2
Autofocus=	Off
AutoExposure=	On
Spike filter=	Multiple accum.
Delay time (s)=	1
Binning=	1
Readout mode=	Signal
DeNoise=	Standard
ICS correction=	Off
Dark correction=	Off
Inst. Process=	Off
Instrument=	XploRA
Detector=	Syncerity
Objective=	x20LWD
Grating=	1200 gr/mm
Filter=	25%
Laser (nm)=	785 
Slit (µm)=	100 
Hole (µm)=	300 
Laser pol=	None
Raman pol=	None
Output=	Camera
StageXY=	Marzhauser
StageZ=	
X (µm)=	-3010.1
Y (µm)=	-1227.4
Project=	
Sample=	
Site=	
Title=	To6-T
Remark=	
Date=	14.10.2022 21:56
Acquired=	14.10.2022 21:56:33
600.787	444.183
601.956	450.886
603.126	458.95
604.294	464.134
605.463	467.963
606.631	470.749
607.8	475.16
608.967	478.459
610.135	482.972
611.302	487.384
612.468	491.724
613.635	495.93
614.802	500.69
615.968	504.816
617.133	507.476
618.299	509.949
619.464	512.379
620.629	514.782
621.793	517.132
622.958	519.411
624.121	521.661
625.285	523.716
626.448	523.357
627.612	521.676
628.774	520.214
629.937	518.06
631.099	516.352
632.261	515.546
633.423	514.516
634.584	513.978
635.745	514.108
636.906	515.126
638.066	517.126
639.227	519.092
640.386	519.168
641.546	518.538
642.705	517.9
643.864	517.324
645.023	516.881
646.181	517.335
647.339	517.648
648.497	517.679
649.655	517.559
650.812	517.346
651.969	516.911
653.125	516.339
654.282	517.92
655.438	517.332
656.593	516.626
657.75	515.738
658.905	514.626
660.059	512.824
661.214	512.54
662.368	512.849
663.522	514.222
664.676	516.599
665.83	516.106
666.983	514.869
668.136	515.508
669.288	518.124
670.441	520.489
671.592	522.929
672.744	527.044
673.895	530.067
675.046	532.551
676.197	533.366
677.348	533.408
678.498	532.696
679.648	531.821
680.798	531.857
681.947	531.992
683.096	532.196
684.245	532.49
685.394	533.01
686.542	533.619
687.69	532.286
688.837	528.863
689.984	524.946
691.132	522.404
692.278	520.406
693.425	518.053
694.571	517.096
695.717	516.665
696.863	516.562
698.008	517.819
699.152	519.662
700.298	522.019
701.442	521.078
702.586	520.991
703.73	523.634
704.873	522.6
706.017	523.005
707.16	519.989
708.302	516.804
709.445	513.636
710.586	510.749
711.729	510.757
712.87	512.113
714.012	515.452
715.152	511.497
716.293	509.006
717.433	507.023
718.573	506.104
719.713	505.456
720.853	505.999
721.991	505.975
723.131	506.377
724.269	506.907
725.408	507.73
726.545	507.777
727.683	508.191
728.821	507.152
729.958	507.531
731.095	508.4
732.231	509.289
733.368	510.203
734.503	511.602
735.639	512.925
736.775	514.936
737.91	516.016
739.045	517.058
740.179	518.434
741.313	519.799
742.447	520.064
743.581	520.946
744.714	521.515
745.847	521.036
746.98	518.44
748.113	517.148
749.245	516.256
750.377	515.371
751.509	513.816
752.64	511.149
753.771	507.792
754.902	504.535
756.033	501.682
757.163	498.832
758.293	495.813
759.423	492.074
760.551	488.359
761.681	484.793
762.81	482.059
763.938	478.916
765.066	475.523
766.194	473.621
767.321	471.955
768.449	470.204
769.576	468.159
770.703	466.307
771.83	465.463
772.955	464.746
774.081	463.973
775.207	463.407
776.332	463.442
777.457	462.718
778.582	462.636
779.707	462.103
780.831	460.849
781.954	458.475
783.078	456.703
784.201	455.666
785.324	453.944
786.447	452.075
787.569	450.843
788.691	447.416
789.813	444.21
790.935	441.701
792.056	441.452
793.177	442.277
794.297	442.701
795.418	442.885
796.539	443.19
797.658	443.677
798.777	443.718
799.897	443.954
801.016	443.965
802.134	443.497
803.253	442.206
804.371	440.337
805.489	438.403
806.606	436.117
807.723	433.579
808.84	431.459
809.957	427.873
811.073	424.936
812.19	422.785
813.305	421.949
814.421	421.736
815.536	422.019
816.651	422.139
817.766	422.197
818.88	423.102
819.994	424.274
821.108	425.122
822.221	425.552
823.335	426.413
824.448	426.654
825.56	426.004
826.673	426.066
827.784	425.329
828.897	423.828
830.008	422.266
831.119	420.66
832.23	418.239
833.341	415.93
834.451	413.537
835.561	411.089
836.671	408.771
837.78	406.893
838.89	405.151
839.998	403.277
841.108	402.373
842.216	401.965
843.324	401.689
844.431	402.734
845.539	403.566
846.646	405.198
847.753	407.035
848.859	409.169
849.966	408.461
851.071	407.773
852.178	406.315
853.283	406.713
854.388	407.144
855.494	406.513
856.598	405.72
857.703	404.926
858.806	404.48
859.91	404.465
861.014	404.569
862.116	404.541
863.22	404.124
864.322	403.743
865.425	403.011
866.527	402.384
867.628	401.02
868.73	398.901
869.831	397.077
870.932	395.324
872.032	392.948
873.133	390.779
874.233	388.212
875.333	386.563
876.432	384.655
877.532	382.524
878.631	380.556
879.729	379.521
880.828	379.698
881.926	379.042
883.023	377.989
884.121	376.798
885.218	375.687
886.315	374.232
887.412	372.367
888.508	371.814
889.604	371.819
890.699	371.985
891.795	373.223
892.89	374.813
893.985	375.922
895.08	376.902
896.174	377.988
897.268	378.381
898.362	378.803
899.456	379.063
900.549	380.161
901.642	380.629
902.734	380.82
903.827	380.164
904.919	379.337
906.011	376.734
907.102	375.068
908.193	372.896
909.284	371.715
910.375	371.554
911.465	372.507
912.555	373.353
913.645	375.248
914.734	375.954
915.824	377.059
916.913	378.887
918.001	378.798
919.09	377.894
920.177	376.744
921.266	374.862
922.353	372.813
923.44	371.311
924.527	369.753
925.614	367.106
926.7	363.452
927.786	360.337
928.873	357.98
929.958	358.472
931.043	355.943
932.128	353.354
933.213	350.675
934.297	348.074
935.381	347.334
936.465	346.101
937.549	345.065
938.632	344.015
939.715	343.65
940.798	343.444
941.881	342.917
942.962	342.56
944.044	341.809
945.125	340.908
946.207	340.274
947.288	338.984
948.368	338.258
949.449	337.044
950.529	335.725
951.61	335.022
952.689	333.904
953.769	333.493
954.847	332.807
955.926	332.805
957.004	335.279
958.082	336.282
959.16	337.189
960.238	337.912
961.316	338.232
962.392	337.62
963.469	336.555
964.546	334.92
965.622	333.357
966.698	331.35
967.774	329.588
968.849	328.59
969.924	327.962
970.998	327.181
972.073	326.75
973.148	326.604
974.221	326.928
975.295	327.784
976.369	329.061
977.441	330.627
978.514	332.425
979.587	334.882
980.659	337.508
981.731	339.703
982.802	342.483
983.874	343.929
984.945	345.464
986.016	346.219
987.087	347.014
988.157	347.063
989.227	347.102
990.296	345.679
991.366	343.713
992.435	341.936
993.504	340.704
994.573	339.463
995.641	338.501
996.709	337.319
997.777	337.108
998.844	337.703
999.911	336.704
1000.98	335.794
1002.05	335.969
1003.11	334.276
1004.18	332.827
1005.24	330.415
1006.31	327.552
1007.37	323.914
1008.44	320.633
1009.5	317.11
1010.57	313.915
1011.63	310.029
1012.7	308.214
1013.76	306.593
1014.82	305.687
1015.89	305.454
1016.95	306.884
1018.01	305.749
1019.07	307.324
1020.13	304.391
1021.2	299.248
1022.26	293.049
1023.32	287.799
1024.38	281.747
1025.44	279.587
1026.5	278.911
1027.56	280.044
1028.62	283.949
1029.68	286.079
1030.74	286.788
1031.8	287.624
1032.85	283.95
1033.91	284.832
1034.97	285
1036.03	285.64
1037.09	287.112
1038.14	288.436
1039.2	290.141
1040.26	291.762
1041.31	294.333
1042.37	296.575
1043.42	297.543
1044.48	298.652
1045.53	299.23
1046.59	299.934
1047.64	299.124
1048.7	297.8
1049.75	296.023
1050.81	291.492
1051.86	289.982
1052.91	288.928
1053.97	287.499
1055.02	284.385
1056.07	283.789
1057.12	285.507
1058.17	286.742
1059.23	284.656
1060.28	282.962
1061.33	281.715
1062.38	281.389
1063.43	279.956
1064.48	270.051
1065.53	269.695
1066.58	282.886
1067.63	274.837
1068.68	276.59
1069.72	277.15
1070.77	276.888
1071.82	276.618
1072.87	276.217
1073.92	276.592
1074.96	277.241
1076.01	277.759
1077.06	277.877
1078.1	278.557
1079.15	278.72
1080.2	278.006
1081.24	276.975
1082.29	275.465
1083.33	274.558
1084.38	274.099
1085.42	273.522
1086.47	273.25
1087.51	272.003
1088.55	270.897
1089.6	269.739
1090.64	268.682
1091.68	267.947
1092.73	267.696
1093.77	267.748
1094.81	267.644
1095.85	266.792
1096.89	265.654
1097.93	264.849
1098.98	264.585
1100.02	264.127
1101.06	263.624
1102.1	263.352
1103.14	262.836
1104.18	262.096
1105.21	262.144
1106.25	262.32
1107.29	261.695
1108.33	260.577
1109.37	259.681
1110.41	259.354
1111.44	259.078
1112.48	259.093
1113.52	258.897
1114.56	258.917
1115.59	258.95
1116.63	257.911
1117.66	257.008
1118.7	255.699
1119.73	254.369
1120.77	253.281
1121.8	251.837
1122.84	249.997
1123.87	248.178
1124.91	247.183
1125.94	246.863
1126.97	246.699
1128.01	246.485
1129.04	247.174
1130.07	249.066
1131.11	251.733
1132.14	254.894
1133.17	257.606
1134.2	259.994
1135.23	262.166
1136.26	265.043
1137.29	266.876
1138.32	268.83
1139.35	270.334
1140.38	271.296
1141.41	271.845
1142.44	272.436
1143.47	271.987
1144.5	272.795
1145.53	273.832
1146.56	274.956
1147.58	276.961
1148.61	279.211
1149.64	282.538
1150.67	286.865
1151.69	290.529
1152.72	293.856
1153.75	296.426
1154.77	297.614
1155.8	298.346
1156.82	297.744
1157.85	294.636
1158.87	290.375
1159.9	284.85
1160.92	279.261
1161.95	273.61
1162.97	267.759
1163.99	262.642
1165.02	258.032
1166.04	254.919
1167.06	253.067
1168.08	251.499
1169.11	250.531
1170.13	250.053
1171.15	249.797
1172.17	250.692
1173.19	251.517
1174.21	252.388
1175.23	253.466
1176.25	254.519
1177.27	255.368
1178.29	256.42
1179.31	257.848
1180.33	259.35
1181.35	261.152
1182.37	262.433
1183.39	264.189
1184.4	265.827
1185.42	266.401
1186.44	266.837
1187.46	266.331
1188.47	264.05
1189.49	260.41
1190.51	256.468
1191.52	252.778
1192.54	248.565
1193.55	243.228
1194.57	239.325
1195.58	235.103
1196.6	231.558
1197.61	228.727
1198.63	227.046
1199.64	225.891
1200.65	225.646
1201.67	225.898
1202.68	226.522
1203.69	227.921
1204.7	229.899
1205.72	231.772
1206.73	233.278
1207.74	233.367
1208.75	233.723
1209.76	234.252
1210.77	234.969
1211.78	235.894
1212.79	236.952
1213.8	238.012
1214.81	239.265
1215.82	240.335
1216.83	240.158
1217.84	239.619
1218.85	239.182
1219.86	237.691
1220.87	236.902
1221.87	236.39
1222.88	236.127
1223.89	235.878
1224.9	234.866
1225.9	233.018
1226.91	231.501
1227.92	229.491
1228.92	227.65
1229.93	225.606
1230.93	223.699
1231.94	221.519
1232.94	219.104
1233.95	216.417
1234.95	213.883
1235.95	212.408
1236.96	210.659
1237.96	209.475
1238.96	208.634
1239.97	207.846
1240.97	207.053
1241.97	207.105
1242.97	207.442
1243.98	207.926
1244.98	207.998
1245.98	207.9
1246.98	207.764
1247.98	207.273
1248.98	206.711
1249.98	206.683
1250.98	206.5
1251.98	206.033
1252.98	205.608
1253.98	204.854
1254.98	204.07
1255.98	203.042
1256.97	201.775
1257.97	201.145
1258.97	200.408
1259.97	200.011
1260.97	199.436
1261.96	199.04
1262.96	198.337
1263.95	197.661
1264.95	197.527
1265.95	197.622
1266.94	197.362
1267.94	196.956
1268.93	196.276
1269.93	195.917
1270.92	195.658
1271.92	195.29
1272.91	194.84
1273.9	195.405
1274.9	195.556
1275.89	195.808
1276.88	196.88
1277.87	198.524
1278.87	199.847
1279.86	200.716
1280.85	201.658
1281.84	202.985
1282.83	203.595
1283.82	204.788
1284.81	205.319
1285.81	205.589
1286.8	205.061
1287.79	205.027
1288.77	204.72
1289.76	203.329
1290.75	201.265
1291.74	198.793
1292.73	196.954
1293.72	194.911
1294.71	193.232
1295.69	192.143
1296.68	191.224
1297.67	190.554
1298.65	188.945
1299.64	188.206
1300.63	187.519
1301.61	188.078
1302.6	188.694
1303.58	190.238
1304.57	191.27
1305.55	191.473
1306.54	191.614
1307.52	191.851
1308.51	191.902
1309.49	191.279
1310.48	190.847
1311.46	190.357
1312.44	188.553
1313.42	188.102
1314.41	186.151
1315.39	184.743
1316.37	184.053
1317.35	185.172
1318.33	186.187
1319.32	189.366
1320.3	193.794
1321.28	199.387
1322.26	204.943
1323.24	208.996
1324.22	213.013
1325.2	214.511
1326.18	215.501
1327.15	216.056
1328.13	215.981
1329.11	210.669
1330.09	206.799
1331.07	203.642
1332.05	200.374
1333.02	196.721
1334	193.043
1334.98	189.003
1335.95	185.301
1336.93	181.827
1337.91	179.068
1338.88	176.747
1339.86	175.058
1340.83	173.913
1341.81	173.052
1342.78	173.277
1343.76	173.484
1344.73	174.463
1345.7	174.992
1346.68	175.125
1347.65	175.544
1348.62	175.541
1349.6	175.555
1350.57	175.32
1351.54	175.272
1352.51	174.53
1353.49	173.345
1354.46	171.987
1355.43	171.052
1356.4	169.795
1357.37	168.71
1358.34	168.033
1359.31	167.138
1360.28	166.286
1361.25	166.219
1362.22	166.703
1363.19	166.596
1364.16	165.882
1365.12	165.136
1366.09	164.633
1367.06	164.508
1368.03	164.392
1369	164.673
1369.96	164.256
1370.93	164.067
1371.9	163.491
1372.86	163.063
1373.83	162.912
1374.79	162.831
1375.76	162.941
1376.73	163.094
1377.69	163.629
1378.66	163.563
1379.62	163.923
1380.58	163.223
1381.55	162.759
1382.51	162.156
1383.48	161.654
1384.44	162.105
1385.4	163.272
1386.36	164.039
1387.33	164.606
1388.29	165.365
1389.25	165.267
1390.21	164.878
1391.17	163.802
1392.13	163.127
1393.09	162.253
1394.06	160.965
1395.01	159.451
1395.97	157.951
1396.93	156.88
1397.89	155.951
1398.85	155.058
1399.81	153.828
1400.77	153
1401.73	152.593
1402.69	152.285
1403.64	152.459
1404.6	152.25
1405.56	152.077
1406.52	151.952
1407.47	152.085
1408.43	152.371
1409.39	152.472
1410.34	151.878
1411.3	151.225
1412.25	150.553
1413.21	149.976
1414.16	150.057
1415.12	150.476
1416.07	150.835
1417.03	150.739
1417.98	149.911
1418.93	149.493
1419.89	150.02
1420.84	150.026
1421.79	150.358
1422.74	150.682
1423.7	151.562
1424.65	152.265
1425.6	153.443
1426.55	154.198
1427.5	154.449
1428.45	154.788
1429.4	154.623
1430.35	155.049
1431.3	155.296
1432.25	155.684
1433.2	156.399
1434.15	156.843
1435.1	157.17
1436.05	157.046
1437	156.992
1437.95	157.388
1438.89	157.502
1439.84	156.727
1440.79	156.436
1441.74	156.07
1442.68	155.738
1443.63	154.112
1444.58	153.23
1445.52	152.235
1446.47	151.484
1447.41	150.321
1448.36	148.277
1449.3	146.052
1450.25	143.54
1451.19	141.032
1452.14	139.004
1453.08	137.324
1454.03	138.038
1454.97	138.58
1455.91	138.821
1456.85	138.418
1457.8	138.325
1458.74	138.534
1459.68	138.762
1460.62	139.006
1461.57	138.991
1462.51	139.449
1463.45	139.269
1464.39	139.236
1465.33	139.114
1466.27	138.44
1467.21	137.524
1468.15	137.061
1469.09	136.697
1470.03	136.693
1470.97	136.779
1471.9	136.748
1472.84	136.722
1473.78	136.47
1474.72	135.851
1475.66	135.6
1476.59	135.947
1477.53	135.88
1478.47	135.691
1479.4	135.395
1480.34	135.504
1481.28	136.072
1482.21	136.729
1483.15	137.758
1484.08	139.094
1485.02	140.156
1485.95	141.326
1486.89	142.078
1487.82	142.48
1488.76	142.722
1489.69	142.476
1490.62	141.908
1491.56	140.982
1492.49	140.282
1493.42	139.04
1494.35	138.148
1495.29	137.233
1496.22	135.751
1497.15	134.503
1498.08	133.186
1499.01	132.146
1499.94	131.1
1500.87	130.545
1501.8	130.425
1502.73	131.008
1503.66	132.246
1504.59	133.155
1505.52	133.762
1506.45	135.073
1507.38	136.757
1508.31	138.692
1509.23	140.713
1510.16	142.875
1511.09	145.475
1512.02	148.111
1512.94	150.926
1513.87	153.552
1514.8	155.427
1515.72	157.201
1516.65	160.598
1517.58	163.731
1518.5	166.846
1519.43	170.242
1520.35	173.74
1521.28	176.949
1522.2	180.236
1523.12	183.248
1524.05	186.598
1524.97	188.928
1525.9	190.45
1526.82	191.042
1527.74	189.99
1528.66	188.873
1529.59	186.539
1530.51	183.597
1531.43	180.079
1532.35	175.857
1533.27	171.96
1534.19	167.348
1535.11	162.836
1536.04	158.555
1536.96	154.511
1537.88	151.352
1538.8	147.873
1539.71	145.003
1540.63	142.264
1541.55	140.06
1542.47	138.909
1543.39	138.444
1544.31	138.288
1545.23	138.21
1546.14	138.844
1547.06	139.255
1547.98	140.01
1548.89	140.025
1549.81	139.697
1550.73	139.355
1551.64	138.235
1552.56	137.248
1553.47	135.42
1554.39	134.264
1555.31	132.409
1556.22	130.322
1557.13	128.492
1558.05	127.248
1558.96	126.246
1559.88	125.121
1560.79	124.408
1561.7	123.683
1562.62	123.342
1563.53	122.936
1564.44	122.496
1565.35	122.225
1566.27	121.467
1567.18	120.829
1568.09	119.936
1569	119.652
1569.91	119.24
1570.82	118.925
1571.73	118.97
1572.64	118.74
1573.55	118.388
1574.46	118.128
1575.37	118.129
1576.28	118.091
1577.19	117.904
1578.1	117.651
1579	117.553
1579.91	117.303
1580.82	117.213
1581.73	117.397
1582.63	117.442
1583.54	117.793
1584.45	117.876
1585.35	117.966
1586.26	117.869
1587.17	117.912
1588.07	118.341
1588.98	118.721
1589.88	119.045
1590.79	119.099
1591.69	119.49
1592.6	119.779
1593.5	121.15
1594.4	122.311
1595.31	123.342
1596.21	123.621
1597.11	123.925
1598.02	124.448
1598.92	124.055
1599.82	124.042
1600.72	124.579
1601.63	125.159
1602.53	125.717
1603.43	126.153
1604.33	126.357
1605.23	126.226
1606.13	126.041
1607.03	126.13
1607.93	126.258
1608.83	126.633
1609.73	126.696
1610.63	126.394
1611.53	125.273
1612.43	124.278
1613.32	123.468
1614.22	122.718
1615.12	122.175
1616.02	121.724
1616.92	121.839
1617.81	121.881
1618.71	121.307
1619.61	120.594
1620.5	120.265
1621.4	119.952
1622.29	119.616
1623.19	119.681
1624.08	120.18
1624.98	120.766
1625.87	121.337
1626.77	121.686
1627.66	121.735
1628.56	121.589
1629.45	121.487
1630.34	121.796
1631.24	122.186
1632.13	122.422
1632.84	122.058
1633.77	121.251
1634.7	120.147
1635.63	120.666
1636.56	118.85
1637.49	115.251
1638.42	113.618
1639.34	112.751
1640.27	113.162
1641.2	114.262
1642.13	116.243
1643.05	118.802
1643.98	120.269
1644.91	120.938
1645.83	121.634
1646.76	121.986
1647.68	122.492
1648.61	122.783
1649.54	122.692
1650.46	121.977
1651.39	121.2
1652.31	119.905
1653.23	119.19
1654.16	118.653
1655.08	117.89
1656.01	116.437
1656.93	115.111
1657.85	113.892
1658.78	113.228
1659.7	112.68
1660.62	112.864
1661.54	113.079
1662.47	113.455
1663.39	114.615
1664.31	114.9
1665.23	114.712
1666.15	114.673
1667.07	114.455
1667.99	114.493
1668.92	115.005
1669.84	113.708
1670.76	112.593
1671.68	112.076
1672.6	111.698
1673.52	111.37
1674.43	111.162
1675.35	110.846
1676.27	110.937
1677.19	110.976
1678.11	112.054
1679.03	112.84
1679.95	113.806
1680.86	113.669
1681.78	113.047
1682.7	111.96
1683.61	111.13
1684.53	110.525
1685.45	110.061
1686.36	111.112
1687.28	113.261
1688.2	114.326
1689.11	115.567
1690.03	115.505
1690.94	114.721
1691.86	113.117
1692.77	110.93
1693.69	108.925
1694.6	106.942
1695.52	106.804
1696.43	106.128
1697.34	105.827
1698.26	105.653
1699.17	105.625
1700.08	105.326
1700.99	105.899
1701.91	105.978
1702.82	104.866
1703.73	104.615
1704.64	104.487
1705.55	104.301
1706.47	104.321
1707.38	104.208
1708.29	104.005
1709.2	104.165
1710.11	104.274
1711.02	103.972
1711.93	103.736
1712.84	102.795
1713.75	101.099
1714.66	100.893
1715.57	101.084
1716.48	101.332
1717.39	101.375
1718.29	101.267
1719.2	101.414
1720.11	101.421
1721.02	100.984
1721.93	100.89
1722.83	100.864
1723.74	100.865
1724.65	101.123
1725.55	100.61
1726.46	100.113
1727.37	99.7336
1728.27	99.6826
1729.18	99.8062
1730.08	99.742
1730.99	99.4779
1731.89	99.4389
1732.8	99.617
1733.7	100.123
1734.61	100.652
1735.51	100.786
1736.42	100.421
1737.32	100.08
1738.22	99.5709
1739.13	99.1324
1740.03	98.3512
1740.93	98.3783
1741.83	98.425
1742.74	98.408
1743.64	98.8956
1744.54	99.1684
1745.44	99.6103
1746.34	100.151
1747.24	99.4098
1748.15	98.9151
1749.05	98.8499
1749.95	99.2948
1750.85	99.7876
1751.75	99.6405
1752.65	99.3636
1753.55	98.7653
1754.45	97.9465
1755.35	97.525
1756.25	97.0204
1757.14	96.7257
1758.04	96.804
1758.94	96.7607
1759.84	96.5813
1760.74	96.6256
1761.63	96.7933
1762.53	96.9201
1763.43	97.224
1764.33	97.4281
1765.22	97.456
1766.12	97.3038
1767.02	96.6328
1767.91	95.9831
1768.81	95.3523
1769.7	94.6071
1770.6	93.9958
1771.49	93.3604
1772.39	93.144
1773.28	93.3065
1774.18	93.5033
1775.07	94.0045
1775.97	94.4038
1776.86	94.8066
1777.75	95.4986
1778.65	95.4604
1779.54	95.1374
1780.43	94.6629
1781.33	94.3955
1782.22	94.2097
1783.11	93.718
1784	93.4367
1784.89	92.2082
1785.79	90.9411
1786.68	89.8635
1787.57	88.9764
1788.46	88.1376
1789.35	87.5733
1790.24	87.4785
1791.13	87.3883
1792.02	87.6938
1792.91	88.1973
1793.8	88.1692
1794.69	88.2148
1795.58	87.8667
1796.47	86.7708
1797.36	85.7148
1798.25	83.22
1799.13	79.8425
