Acq. time (s)=	15
Accumulations=	2
Range (cm-¹)=	600...1800
Windows=	2
Autofocus=	Off
AutoExposure=	On
Spike filter=	Multiple accum.
Delay time (s)=	1
Binning=	1
Readout mode=	Signal
DeNoise=	Standard
ICS correction=	Off
Dark correction=	Off
Inst. Process=	Off
Instrument=	XploRA
Detector=	Syncerity
Objective=	x20LWD
Grating=	1200 gr/mm
Filter=	25%
Laser (nm)=	785 
Slit (µm)=	100 
Hole (µm)=	300 
Laser pol=	None
Raman pol=	None
Output=	Camera
StageXY=	Marzhauser
StageZ=	
X (µm)=	-4602.3
Y (µm)=	-4281.7
Project=	
Sample=	
Site=	
Title=	To5-T
Remark=	
Date=	14.10.2022 21:11
Acquired=	14.10.2022 21:11:08
600.787	432.77
601.956	445.877
603.126	456.686
604.294	465.62
605.463	472.232
606.631	477.4
607.8	481.658
608.967	485.493
610.135	488.77
611.302	491.714
612.468	494.563
613.635	497.349
614.802	500.443
615.968	503.822
617.133	506.868
618.299	510.401
619.464	514.03
620.629	517.638
621.793	521.098
622.958	524.22
624.121	527.262
625.285	531.94
626.448	535.449
627.612	536.837
628.774	537.176
629.937	537.641
631.099	537.206
632.261	537.205
633.423	537.108
634.584	537.119
635.745	537.229
636.906	537.419
638.066	537.527
639.227	537.916
640.386	538.311
641.546	538.392
642.705	537.54
643.864	536.759
645.023	536.129
646.181	535.672
647.339	535.152
648.497	534.64
649.655	533.789
650.812	533.045
651.969	533.716
653.125	534.476
654.282	535.027
655.438	535.505
656.593	536.115
657.75	537.022
658.905	538.472
660.059	540.471
661.214	543.332
662.368	546.244
663.522	547.9
664.676	549.246
665.83	550.259
666.983	551.467
668.136	552.432
669.288	551.239
670.441	554.049
671.592	554.56
672.744	552.738
673.895	552.819
675.046	553.106
676.197	553.579
677.348	554.216
678.498	555.133
679.648	556.469
680.798	558.538
681.947	560.003
683.096	561.149
684.245	561.939
685.394	562.601
686.542	562.794
687.69	562.422
688.837	560.507
689.984	560.289
691.132	558.128
692.278	557.214
693.425	556.56
694.571	556.135
695.717	555.781
696.863	555.558
698.008	555.501
699.152	555.916
700.298	556.362
701.442	555.533
702.586	554.345
703.73	552.931
704.873	551.798
706.017	550.842
707.16	549.849
708.302	548.164
709.445	544.337
710.586	542.962
711.729	541.423
712.87	539.681
714.012	538.32
715.152	537.225
716.293	536.371
717.433	535.866
718.573	535.435
719.713	535.245
720.853	535.302
721.991	535.515
723.131	535.819
724.269	536.233
725.408	536.635
726.545	537.339
727.683	538.118
728.821	538.892
729.958	539.554
731.095	540.316
732.231	540.663
733.368	542.251
734.503	543.1
735.639	542.995
736.775	544.345
737.91	545.872
739.045	549.038
740.179	550.757
741.313	551.486
742.447	551.468
743.581	550.957
744.714	549.931
745.847	548.266
746.98	546.129
748.113	542.904
749.245	539.54
750.377	536.744
751.509	534.222
752.64	532.068
753.771	530.278
754.902	528.918
756.033	527.932
757.163	527.733
758.293	526.737
759.423	525.199
760.551	523.337
761.681	521.076
762.81	517.998
763.938	514.479
765.066	511.268
766.194	509.123
767.321	506.538
768.449	503.779
769.576	501.346
770.703	499.249
771.83	497.696
772.955	496.406
774.081	495.518
775.207	495.188
776.332	494.826
777.457	493.997
778.582	492.737
779.707	491.464
780.831	490.177
781.954	488.884
783.078	487.643
784.201	486.352
785.324	485.171
786.447	483.953
787.569	482.883
788.691	481.796
789.813	480.748
790.935	479.699
792.056	478.648
793.177	477.614
794.297	476.579
795.418	475.549
796.539	474.636
797.658	473.587
798.777	471.977
799.897	469.845
801.016	467.436
802.134	464.825
803.253	462.09
804.371	459.355
805.489	456.878
806.606	455.13
807.723	454.102
808.84	453.58
809.957	454.099
811.073	454.124
812.19	453.953
813.305	453.477
814.421	452.727
815.536	452.042
816.651	451.495
817.766	451.139
818.88	451.079
819.994	451.463
821.108	452.48
822.221	453.498
823.335	454.351
824.448	454.828
825.56	455.131
826.673	455.175
827.784	455.246
828.897	454.844
830.008	454.015
831.119	453.074
832.23	452.356
833.341	451.686
834.451	451.396
835.561	451.349
836.671	451.47
837.78	451.749
838.89	451.89
839.998	452.167
841.108	452.49
842.216	452.866
843.324	453.27
844.431	453.995
845.539	455.047
846.646	455.276
847.753	454.704
848.859	453.35
849.966	451.196
851.071	447.737
852.178	444.221
853.283	441.218
854.388	438.352
855.494	435.714
856.598	433.27
857.703	431.03
858.806	429.083
859.91	427.065
861.014	425.281
862.116	423.62
863.22	422.145
864.322	421.045
865.425	420.155
866.527	419.444
867.628	418.869
868.73	418.354
869.831	417.968
870.932	417.882
872.032	417.76
873.133	417.489
874.233	417.365
875.333	416.684
876.432	415.963
877.532	415.13
878.631	414.29
879.729	413.429
880.828	412.538
881.926	411.696
883.023	410.823
884.121	410.004
885.218	409.184
886.315	408.477
887.412	407.832
888.508	407.504
889.604	406.842
890.699	406.204
891.795	405.643
892.89	405.22
893.985	404.879
895.08	404.728
896.174	404.671
897.268	405.001
898.362	405.778
899.456	406.632
900.549	407.654
901.642	408.647
902.734	409.541
903.827	409.384
904.919	408.73
906.011	407.694
907.102	406.925
908.193	406.183
909.284	405.236
910.375	404.397
911.465	401.867
912.555	400.83
913.645	400.728
914.734	401.035
915.824	401.189
916.913	400.641
918.001	401.616
919.09	402.889
920.177	403.467
921.266	401.892
922.353	397.958
923.44	394.497
924.527	392.26
925.614	390.367
926.7	389.439
927.786	388.233
928.873	384.676
929.958	382.224
931.043	380.198
932.128	379.304
933.213	382.606
934.297	380.991
935.381	379.517
936.465	378.386
937.549	377.578
938.632	376.897
939.715	376.582
940.798	376.261
941.881	375.961
942.962	375.554
944.044	375.023
945.125	374.307
946.207	373.325
947.288	372.131
948.368	370.729
949.449	369.226
950.529	367.502
951.61	366.022
952.689	364.992
953.769	363.906
954.847	362.496
955.926	360.593
957.004	358.961
958.082	358.398
959.16	357.694
960.238	356.161
961.316	356.019
962.392	356.793
963.469	358.099
964.546	359.332
965.622	359.514
966.698	359.253
967.774	358.936
968.849	358.778
969.924	359.016
970.998	359.984
972.073	360.93
973.148	360.959
974.221	358.85
975.295	358.966
976.369	359.168
977.441	359.541
978.514	360.105
979.587	360.859
980.659	361.895
981.731	363.375
982.802	365.083
983.874	366.955
984.945	368.973
986.016	370.854
987.087	372.227
988.157	372.521
989.227	371.963
990.296	370.827
991.366	370.372
992.435	369.349
993.504	368.069
994.573	366.765
995.641	365.374
996.709	363.958
997.777	362.499
998.844	361.03
999.911	359.655
1000.98	358.312
1002.05	357.105
1003.11	356.023
1004.18	355.103
1005.24	353.635
1006.31	350.976
1007.37	347.927
1008.44	344.879
1009.5	342.064
1010.57	339.523
1011.63	337.493
1012.7	335.937
1013.76	334.783
1014.82	334.114
1015.89	333.852
1016.95	332.304
1018.01	331.923
1019.07	331.471
1020.13	330.96
1021.2	330.169
1022.26	329.075
1023.32	327.728
1024.38	326.134
1025.44	324.289
1026.5	322.034
1027.56	319.802
1028.62	317.946
1029.68	316.78
1030.74	316.082
1031.8	315.814
1032.85	315.956
1033.91	315.996
1034.97	316.536
1036.03	316.376
1037.09	316.171
1038.14	315.882
1039.2	316.215
1040.26	316.629
1041.31	317.015
1042.37	317.384
1043.42	317.719
1044.48	317.956
1045.53	318.047
1046.59	318.053
1047.64	317.95
1048.7	317.799
1049.75	317.477
1050.81	317.093
1051.86	316.579
1052.91	316.011
1053.97	315.35
1055.02	314.656
1056.07	313.844
1057.12	312.948
1058.17	312.023
1059.23	311.785
1060.28	312.523
1061.33	312.299
1062.38	311.879
1063.43	311.278
1064.48	310.522
1065.53	309.564
1066.58	308.839
1067.63	309.535
1068.68	309.681
1069.72	309.581
1070.77	309.298
1071.82	308.879
1072.87	308.341
1073.92	307.83
1074.96	307.368
1076.01	307.137
1077.06	306.947
1078.1	306.044
1079.15	304.44
1080.2	303.719
1081.24	301.477
1082.29	299.26
1083.33	297.08
1084.38	295.083
1085.42	293.267
1086.47	291.76
1087.51	290.542
1088.55	289.636
1089.6	289.096
1090.64	288.558
1091.68	288.26
1092.73	289.38
1093.77	288.846
1094.81	288.45
1095.85	287.353
1096.89	286.444
1097.93	285.726
1098.98	285.349
1100.02	285.179
1101.06	285.319
1102.1	285.901
1103.14	286.784
1104.18	288.181
1105.21	289.881
1106.25	291.917
1107.29	292.327
1108.33	292.422
1109.37	292.014
1110.41	291.164
1111.44	290.332
1112.48	289.54
1113.52	287.387
1114.56	283.934
1115.59	282.61
1116.63	281.658
1117.66	280.97
1118.7	282.312
1119.73	281.464
1120.77	280.3
1121.8	279.437
1122.84	278.371
1123.87	276.92
1124.91	275.451
1125.94	274.413
1126.97	273.473
1128.01	274.487
1129.04	274.179
1130.07	274.158
1131.11	274.03
1132.14	274.099
1133.17	274.514
1134.2	275.145
1135.23	276.139
1136.26	277.184
1137.29	280.257
1138.32	283.692
1139.35	288.183
1140.38	291.592
1141.41	299.041
1142.44	300.441
1143.47	299.844
1144.5	300.166
1145.53	300.084
1146.56	300.38
1147.58	300.129
1148.61	297.945
1149.64	299.933
1150.67	305.688
1151.69	309.983
1152.72	312.849
1153.75	314.491
1154.77	316.606
1155.8	317.342
1156.82	318.141
1157.85	314.873
1158.87	310.016
1159.9	303.692
1160.92	297.989
1161.95	292.217
1162.97	286.567
1163.99	282.608
1165.02	278.085
1166.04	274.078
1167.06	270.474
1168.08	267.905
1169.11	265.609
1170.13	265.157
1171.15	265.746
1172.17	267.008
1173.19	267.246
1174.21	267.96
1175.23	269.069
1176.25	270.445
1177.27	272.292
1178.29	274.17
1179.31	276.056
1180.33	277.945
1181.35	279.722
1182.37	281.278
1183.39	282.595
1184.4	283.77
1185.42	284.565
1186.44	285.02
1187.46	284.783
1188.47	282.748
1189.49	280.866
1190.51	279.107
1191.52	277.432
1192.54	275.686
1193.55	273.922
1194.57	272.288
1195.58	270.345
1196.6	267.506
1197.61	265.089
1198.63	262.86
1199.64	260.91
1200.65	258.811
1201.67	256.911
1202.68	255.289
1203.69	254.632
1204.7	254.242
1205.72	253.88
1206.73	253.556
1207.74	253.348
1208.75	253.773
1209.76	254.359
1210.77	255.176
1211.78	255.916
1212.79	256.194
1213.8	256.751
1214.81	257.852
1215.82	259.994
1216.83	262.407
1217.84	263.585
1218.85	263.691
1219.86	263.551
1220.87	262.841
1221.87	262.522
1222.88	262.07
1223.89	261.373
1224.9	260.162
1225.9	259.626
1226.91	259.536
1227.92	258.444
1228.92	254.774
1229.93	251.172
1230.93	247.682
1231.94	244.372
1232.94	241.788
1233.95	239.858
1234.95	238.917
1235.95	241.2
1236.96	240.644
1237.96	239.752
1238.96	238.69
1239.97	236.221
1240.97	233.204
1241.97	231.063
1242.97	229.096
1243.98	227.504
1244.98	225.729
1245.98	224.281
1246.98	223.549
1247.98	222.946
1248.98	221.841
1249.98	221.247
1250.98	221.332
1251.98	222.038
1252.98	223.038
1253.98	222.977
1254.98	223.157
1255.98	223.486
1256.97	223.689
1257.97	223.756
1258.97	224.646
1259.97	225.8
1260.97	226.718
1261.96	225.378
1262.96	223.937
1263.95	222.787
1264.95	221.788
1265.95	220.726
1266.94	219.837
1267.94	218.996
1268.93	218.353
1269.93	217.875
1270.92	217.736
1271.92	218.117
1272.91	218.871
1273.9	218.187
1274.9	217.64
1275.89	217.54
1276.88	217.483
1277.87	217.237
1278.87	216.988
1279.86	215.77
1280.85	216.985
1281.84	218.647
1282.83	220.791
1283.82	223.204
1284.81	225.393
1285.81	224.998
1286.8	224.892
1287.79	224.03
1288.77	222.449
1289.76	220.771
1290.75	218.905
1291.74	216.95
1292.73	214.888
1293.72	212.989
1294.71	211.385
1295.69	210.029
1296.68	209.461
1297.67	209.204
1298.65	209.207
1299.64	209.636
1300.63	211.149
1301.61	211.782
1302.6	210.934
1303.58	210.228
1304.57	210.362
1305.55	210.704
1306.54	211.214
1307.52	211.963
1308.51	212.099
1309.49	212.604
1310.48	212.46
1311.46	211.404
1312.44	210.274
1313.42	209.651
1314.41	209.171
1315.39	209.174
1316.37	211.476
1317.35	212.25
1318.33	213.399
1319.32	214.61
1320.3	216.077
1321.28	217.584
1322.26	219.296
1323.24	221.152
1324.22	223.257
1325.2	225.426
1326.18	227.77
1327.15	230.866
1328.13	229.374
1329.11	227.125
1330.09	223.782
1331.07	220.356
1332.05	216.535
1333.02	213.274
1334	210.458
1334.98	207.473
1335.95	205.888
1336.93	203.666
1337.91	202.641
1338.88	201.671
1339.86	200.326
1340.83	198.751
1341.81	196.951
1342.78	194.712
1343.76	193.026
1344.73	190.753
1345.7	189.208
1346.68	187.957
1347.65	187.073
1348.62	186.286
1349.6	186.346
1350.57	186.764
1351.54	186.945
1352.51	187.118
1353.49	188.157
1354.46	188.628
1355.43	188.773
1356.4	188.823
1357.37	188.965
1358.34	188.63
1359.31	187.964
1360.28	187.347
1361.25	186.758
1362.22	186.633
1363.19	186.08
1364.16	185.352
1365.12	184.915
1366.09	185.008
1367.06	184.91
1368.03	184.397
1369	183.988
1369.96	183.433
1370.93	182.854
1371.9	182.501
1372.86	182.144
1373.83	181.699
1374.79	181.383
1375.76	182.434
1376.73	183.116
1377.69	183.242
1378.66	183.214
1379.62	183.726
1380.58	184.495
1381.55	184.954
1382.51	185.784
1383.48	185.644
1384.44	185.408
1385.4	184.574
1386.36	183.489
1387.33	182.328
1388.29	180.878
1389.25	178.488
1390.21	177.113
1391.17	175.7
1392.13	174.703
1393.09	173.001
1394.06	172.354
1395.01	171.914
1395.97	172
1396.93	172.277
1397.89	172.806
1398.85	174.362
1399.81	173.268
1400.77	171.352
1401.73	169.846
1402.69	167.407
1403.64	165.514
1404.6	163.777
1405.56	162.053
1406.52	161.553
1407.47	163.698
1408.43	163.895
1409.39	163.905
1410.34	164.431
1411.3	164.874
1412.25	165.49
1413.21	165.449
1414.16	165.645
1415.12	165.259
1416.07	165.221
1417.03	164.917
1417.98	165.035
1418.93	165.204
1419.89	165.013
1420.84	165.035
1421.79	164.96
1422.74	164.637
1423.7	163.776
1424.65	163.157
1425.6	163.238
1426.55	162.83
1427.5	162.914
1428.45	163.419
1429.4	164.421
1430.35	165.718
1431.3	166.779
1432.25	168.354
1433.2	170.464
1434.15	172.434
1435.1	174.439
1436.05	176.428
1437	177.171
1437.95	175.076
1438.89	173.363
1439.84	171.831
1440.79	170.62
1441.74	169.726
1442.68	169.075
1443.63	168.933
1444.58	168.995
1445.52	169.176
1446.47	168.716
1447.41	167.588
1448.36	166.802
1449.3	165.846
1450.25	163.996
1451.19	163.853
1452.14	163.906
1453.08	163.461
1454.03	164.873
1454.97	165.133
1455.91	164.61
1456.85	164.054
1457.8	163.072
1458.74	161.476
1459.68	158.887
1460.62	158.076
1461.57	157.217
1462.51	159.452
1463.45	159.5
1464.39	159.129
1465.33	158.072
1466.27	157.257
1467.21	156.259
1468.15	155.244
1469.09	153.689
1470.03	152.44
1470.97	147.37
1471.9	152.378
1472.84	151.808
1473.78	151.914
1474.72	151.67
1475.66	151.218
1476.59	151.184
1477.53	150.808
1478.47	150.313
1479.4	149.824
1480.34	149.682
1481.28	149.667
1482.21	150.317
1483.15	150.598
1484.08	150.861
1485.02	150.955
1485.95	151.446
1486.89	151.65
1487.82	152.3
1488.76	153.5
1489.69	154.68
1490.62	155.256
1491.56	154.688
1492.49	154.35
1493.42	154.823
1494.35	155.452
1495.29	155.034
1496.22	154.148
1497.15	153.35
1498.08	152.522
1499.01	151.236
1499.94	149.497
1500.87	147.67
1501.8	146.662
1502.73	145.362
1503.66	145.21
1504.59	145.412
1505.52	146.479
1506.45	148.408
1507.38	150.833
1508.31	153.352
1509.23	154.552
1510.16	155.968
1511.09	157.589
1512.02	159.802
1512.94	162.263
1513.87	165.088
1514.8	167.819
1515.72	170.354
1516.65	173.064
1517.58	175.844
1518.5	178.844
1519.43	182.233
1520.35	185.974
1521.28	189.315
1522.2	191.835
1523.12	193.871
1524.05	195.556
1524.97	196.787
1525.9	197.601
1526.82	197.921
1527.74	197.754
1528.66	197.075
1529.59	195.788
1530.51	193.389
1531.43	189.932
1532.35	186.005
1533.27	182.153
1534.19	178.506
1535.11	174.976
1536.04	171.841
1536.96	168.591
1537.88	165.801
1538.8	162.944
1539.71	161.09
1540.63	158.388
1541.55	156.128
1542.47	154.417
1543.39	153.109
1544.31	152.341
1545.23	151.972
1546.14	150.593
1547.06	149.591
1547.98	148.504
1548.89	147.688
1549.81	147.345
1550.73	146.459
1551.64	145.688
1552.56	144.668
1553.47	143.862
1554.39	142.529
1555.31	141.68
1556.22	141.246
1557.13	142.348
1558.05	141.416
1558.96	140.582
1559.88	138.836
1560.79	137.01
1561.7	134.951
1562.62	132.928
1563.53	131.37
1564.44	130.12
1565.35	129.108
1566.27	128.294
1567.18	128.099
1568.09	129.5
1569	130.357
1569.91	130.869
1570.82	130.717
1571.73	130.13
1572.64	129.102
1573.55	128.11
1574.46	127.155
1575.37	126.565
1576.28	126.233
1577.19	126.177
1578.1	126.134
1579	126.366
1579.91	126.912
1580.82	128.383
1581.73	129.08
1582.63	129.601
1583.54	129.714
1584.45	129.98
1585.35	129.99
1586.26	129.79
1587.17	129.579
1588.07	129.478
1588.98	129.048
1589.88	128.736
1590.79	128.361
1591.69	127.968
1592.6	127.559
1593.5	127.118
1594.4	126.864
1595.31	127.029
1596.21	127.245
1597.11	127.255
1598.02	127.309
1598.92	127.453
1599.82	127.812
1600.72	128.365
1601.63	128.878
1602.53	129.462
1603.43	130.034
1604.33	130.509
1605.23	131.04
1606.13	131.677
1607.03	131.92
1607.93	131.706
1608.83	131.568
1609.73	131.417
1610.63	131.104
1611.53	130.737
1612.43	130.364
1613.32	129.614
1614.22	128.562
1615.12	127.767
1616.02	126.666
1616.92	125.42
1617.81	124.859
1618.71	124.432
1619.61	124.088
1620.5	123.808
1621.4	123.246
1622.29	122.76
1623.19	122.646
1624.08	122.645
1624.98	122.61
1625.87	122.803
1626.77	123.438
1627.66	124.365
1628.56	125.159
1629.45	125.815
1630.34	126.427
1631.24	126.873
1632.13	126.792
1632.84	126.438
1633.77	126.062
1634.7	125.571
1635.63	125.098
1636.56	124.695
1637.49	124.039
1638.42	123.258
1639.34	122.572
1640.27	121.589
1641.2	121.353
1642.13	121.074
1643.05	121.024
1643.98	120.562
1644.91	120.427
1645.83	119.632
1646.76	119.693
1647.68	120.768
1648.61	121.561
1649.54	122.149
1650.46	122.739
1651.39	122.318
1652.31	121.446
1653.23	120.979
1654.16	120.141
1655.08	119.255
1656.01	118.859
1656.93	118.63
1657.85	118.638
1658.78	118.454
1659.7	118.188
1660.62	117.475
1661.54	116.508
1662.47	115.611
1663.39	114.412
1664.31	112.921
1665.23	112.442
1666.15	111.883
1667.07	111.257
1667.99	111.357
1668.92	111.629
1669.84	112.661
1670.76	113.317
1671.68	114.152
1672.6	114.72
1673.52	114.921
1674.43	115.19
1675.35	115.635
1676.27	115.677
1677.19	115.686
1678.11	115.66
1679.03	115.714
1679.95	115.072
1680.86	114.326
1681.78	113.906
1682.7	113.779
1683.61	114.14
1684.53	114.071
1685.45	114.944
1686.36	115.607
1687.28	115.452
1688.2	114.855
1689.11	114.312
1690.03	114.035
1690.94	113.868
1691.86	113.502
1692.77	113.049
1693.69	112.307
1694.6	111.688
1695.52	111.173
1696.43	110.24
1697.34	108.847
1698.26	108.13
1699.17	107.561
1700.08	107.368
1700.99	107.383
1701.91	106.672
1702.82	106.04
1703.73	105.871
1704.64	105.654
1705.55	105.348
1706.47	105.748
1707.38	106.056
1708.29	106.453
1709.2	106.912
1710.11	107.104
1711.02	106.622
1711.93	106.512
1712.84	105.614
1713.75	106.035
1714.66	105.621
1715.57	105.012
1716.48	104.454
1717.39	103.735
1718.29	103.14
1719.2	102.279
1720.11	101.546
1721.02	101.283
1721.93	100.738
1722.83	100.001
1723.74	99.4812
1724.65	99.4668
1725.55	99.6114
1726.46	99.3188
1727.37	99.26
1728.27	99.1635
1729.18	98.9739
1730.08	99.2425
1730.99	99.3004
1731.89	98.9447
1732.8	98.8165
1733.7	98.8029
1734.61	98.6163
1735.51	97.7863
1736.42	96.8835
1737.32	97.2197
1738.22	98.8888
1739.13	100.499
1740.03	101.995
1740.93	103.321
1741.83	104.175
1742.74	104.314
1743.64	104.181
1744.54	103.225
1745.44	98.3438
1746.34	96.6768
1747.24	96.1098
1748.15	96.4834
1749.05	97.2556
1749.95	98.184
1750.85	99.1725
1751.75	100.515
1752.65	101.405
1753.55	102.113
1754.45	102.186
1755.35	102.381
1756.25	102.269
1757.14	102.377
1758.04	102.224
1758.94	101.074
1759.84	99.4791
1760.74	98.0053
1761.63	96.8696
1762.53	96.7002
1763.43	96.1026
1764.33	95.8203
1765.22	95.8762
1766.12	96.2339
1767.02	96.5836
1767.91	97.0907
1768.81	97.4269
1769.7	97.7515
1770.6	98.1229
1771.49	97.979
1772.39	97.7748
1773.28	97.3125
1774.18	96.2119
1775.07	95.1174
1775.97	94.4986
1776.86	94.011
1777.75	93.3609
1778.65	93.1181
1779.54	93.1209
1780.43	92.6159
1781.33	92.4891
1782.22	92.6768
1783.11	92.9341
1784	93.4129
1784.89	93.8385
1785.79	94.3741
1786.68	94.7164
1787.57	94.7101
1788.46	94.6125
1789.35	92.5175
1790.24	93.8157
1791.13	94.0044
1792.02	93.7205
1792.91	93.1051
1793.8	92.3325
1794.69	90.6746
1795.58	87.7092
1796.47	84.6627
1797.36	83.6195
1798.25	83.4559
1799.13	89.5913
