Acq. time (s)=	15
Accumulations=	2
Range (cm-¹)=	600...1800
Windows=	2
Autofocus=	Off
AutoExposure=	On
Spike filter=	Multiple accum.
Delay time (s)=	1
Binning=	1
Readout mode=	Signal
DeNoise=	Standard
ICS correction=	Off
Dark correction=	Off
Inst. Process=	Off
Instrument=	XploRA
Detector=	Syncerity
Objective=	x20LWD
Grating=	1200 gr/mm
Filter=	25%
Laser (nm)=	785 
Slit (µm)=	100 
Hole (µm)=	300 
Laser pol=	None
Raman pol=	None
Output=	Camera
StageXY=	Marzhauser
StageZ=	
X (µm)=	6441
Y (µm)=	-260.3
Project=	
Sample=	
Site=	
Title=	To12-T
Remark=	
Date=	15.10.2022 18:50
Acquired=	15.10.2022 18:50:55
600.787	305.09
601.956	290.284
603.126	290.854
604.294	293.367
605.463	296.135
606.631	300.309
607.8	304.077
608.967	309.028
610.135	314.994
611.302	320.421
612.468	324.913
613.635	328.652
614.802	329.985
615.968	332.287
617.133	334.145
618.299	336.396
619.464	338.141
620.629	340.195
621.793	342.142
622.958	344.339
624.121	346.239
625.285	347.934
626.448	349.877
627.612	355.582
628.774	358.424
629.937	360.978
631.099	363.551
632.261	365.838
633.423	367.898
634.584	369.554
635.745	370.296
636.906	372.143
638.066	373.474
639.227	374.547
640.386	375.691
641.546	376.718
642.705	376.953
643.864	377.268
645.023	377.44
646.181	377.963
647.339	379.462
648.497	381.035
649.655	383.314
650.812	386.189
651.969	388.563
653.125	390.888
654.282	393.291
655.438	395.143
656.593	397.227
657.75	399.832
658.905	402.609
660.059	406.29
661.214	408.649
662.368	411.119
663.522	413.443
664.676	415.24
665.83	416.67
666.983	417.475
668.136	418.187
669.288	419.855
670.441	420.88
671.592	422.332
672.744	424.096
673.895	424.665
675.046	425.115
676.197	425.189
677.348	426.198
678.498	426.638
679.648	425.866
680.798	426.674
681.947	428.018
683.096	429.651
684.245	433.068
685.394	434.432
686.542	431.989
687.69	433.133
688.837	434.034
689.984	437.095
691.132	439.764
692.278	442.851
693.425	444.39
694.571	445.492
695.717	443.899
696.863	437.543
698.008	436.776
699.152	436.793
700.298	437.004
701.442	441.781
702.586	443.515
703.73	444.708
704.873	445.595
706.017	446.166
707.16	446.544
708.302	445.31
709.445	444.022
710.586	443.969
711.729	442.994
712.87	442.119
714.012	441.526
715.152	440.694
716.293	440.297
717.433	440.945
718.573	441.472
719.713	441.81
720.853	441.687
721.991	441.437
723.131	441.685
724.269	441.759
725.408	442.336
726.545	443.097
727.683	442.876
728.821	442.691
729.958	443.328
731.095	444.955
732.231	446.848
733.368	450.788
734.503	453.063
735.639	454.387
736.775	455.435
737.91	456.245
739.045	457.382
740.179	460.013
741.313	460.234
742.447	459.529
743.581	457.895
744.714	456.347
745.847	454.477
746.98	452.09
748.113	450.221
749.245	448.783
750.377	447.1
751.509	446.19
752.64	446.046
753.771	445.946
754.902	443.418
756.033	441.247
757.163	439.327
758.293	438.89
759.423	437.471
760.551	436.026
761.681	434.769
762.81	435.239
763.938	434.978
765.066	434.68
766.194	433.996
767.321	433.748
768.449	432.444
769.576	431.345
770.703	429.455
771.83	426.921
772.955	424.778
774.081	422.308
775.207	419.108
776.332	416.207
777.457	412.601
778.582	410.759
779.707	410.08
780.831	409.011
781.954	408.068
783.078	407.103
784.201	407.436
785.324	409.037
786.447	409.99
787.569	411.111
788.691	412.514
789.813	413.29
790.935	413.016
792.056	412.81
793.177	411.485
794.297	409.202
795.418	407.682
796.539	406.249
797.658	403.759
798.777	401.383
799.897	398.94
801.016	397.713
802.134	396.135
803.253	394.92
804.371	393.943
805.489	392.859
806.606	392.534
807.723	393.247
808.84	392.938
809.957	393.605
811.073	394.053
812.19	393.584
813.305	392.945
814.421	391.984
815.536	390.443
816.651	389.122
817.766	387.985
818.88	386.412
819.994	384.246
821.108	382.424
822.221	381.261
823.335	380.99
824.448	379.787
825.56	378.439
826.673	377.892
827.784	377.609
828.897	378.008
830.008	378.08
831.119	377.89
832.23	377.942
833.341	377.901
834.451	377.963
835.561	378.201
836.671	378.123
837.78	378.184
838.89	379.039
839.998	380.331
841.108	380.935
842.216	381.232
843.324	381.889
844.431	382.778
845.539	383.049
846.646	381.925
847.753	380.963
848.859	380.362
849.966	379.479
851.071	378.927
852.178	378.216
853.283	376.746
854.388	374.421
855.494	371.953
856.598	368.485
857.703	367.311
858.806	366.364
859.91	366.612
861.014	367.147
862.116	368.767
863.22	370.046
864.322	370.747
865.425	371.785
866.527	372.302
867.628	372.103
868.73	371.805
869.831	371.091
870.932	370.328
872.032	369.087
873.133	367.013
874.233	364.877
875.333	362.035
876.432	358.943
877.532	356.086
878.631	353.986
879.729	352.402
880.828	351.193
881.926	349.645
883.023	348.772
884.121	348.536
885.218	347.881
886.315	346.892
887.412	345.717
888.508	344.805
889.604	344.181
890.699	343.964
891.795	343.761
892.89	344.126
893.985	345.055
895.08	345.061
896.174	345.094
897.268	345.022
898.362	344.887
899.456	345.545
900.549	345.895
901.642	346.433
902.734	347.049
903.827	346.893
904.919	346.219
906.011	346.648
907.102	347.688
908.193	348.441
909.284	348.379
910.375	348.52
911.465	348.12
912.555	347.2
913.645	346.572
914.734	346.034
915.824	345.44
916.913	344.31
918.001	342.708
919.09	341.69
920.177	340.288
921.266	338.956
922.353	336.504
923.44	333.85
924.527	331.589
925.614	329.614
926.7	328.64
927.786	327.32
928.873	326.166
929.958	325.288
931.043	323.702
932.128	322.1
933.213	320.62
934.297	319.404
935.381	318.384
936.465	318.195
937.549	317.643
938.632	315.954
939.715	314.423
940.798	313.807
941.881	313.191
942.962	312.586
944.044	311.755
945.125	311.575
946.207	311.336
947.288	310.773
948.368	310.426
949.449	309.256
950.529	308.112
951.61	307.364
952.689	306.76
953.769	306.575
954.847	306.417
955.926	306.644
957.004	307.521
958.082	308.683
959.16	308.968
960.238	308.79
961.316	308.856
962.392	308.684
963.469	307.857
964.546	306.388
965.622	305.413
966.698	305.419
967.774	305.337
968.849	305.357
969.924	305.607
970.998	305.84
972.073	306.594
973.148	307.917
974.221	308.984
975.295	310.346
976.369	311.008
977.441	312.5
978.514	313.421
979.587	314.108
980.659	315.534
981.731	317.197
982.802	318.464
983.874	319.463
984.945	321.549
986.016	322.692
987.087	324.005
988.157	323.96
989.227	323.421
990.296	322.437
991.366	320.217
992.435	317.496
993.504	314.821
994.573	312.705
995.641	310.417
996.709	308.673
997.777	306.877
998.844	306.72
999.911	306.122
1000.98	305.081
1002.05	304.563
1003.11	304.612
1004.18	303.019
1005.24	301.287
1006.31	299.647
1007.37	297.873
1008.44	296.218
1009.5	294.477
1010.57	293.002
1011.63	291.539
1012.7	290.185
1013.76	290.072
1014.82	289.367
1015.89	289.211
1016.95	289.088
1018.01	288.392
1019.07	287.611
1020.13	286.721
1021.2	285.147
1022.26	283.086
1023.32	280.992
1024.38	278.217
1025.44	275.177
1026.5	272.806
1027.56	271.187
1028.62	269.878
1029.68	269.197
1030.74	268.661
1031.8	268.994
1032.85	270.033
1033.91	270.816
1034.97	272.035
1036.03	273.258
1037.09	274.285
1038.14	275.092
1039.2	275.091
1040.26	275.104
1041.31	274.397
1042.37	273.938
1043.42	273.379
1044.48	272.474
1045.53	271.389
1046.59	271.394
1047.64	270.514
1048.7	268.515
1049.75	266.381
1050.81	264.397
1051.86	262.129
1052.91	260.624
1053.97	259.035
1055.02	258.04
1056.07	257.01
1057.12	256.04
1058.17	256.233
1059.23	255.397
1060.28	256.026
1061.33	257.675
1062.38	259.597
1063.43	262.22
1064.48	264.532
1065.53	266.551
1066.58	268.134
1067.63	269.309
1068.68	269.402
1069.72	269.547
1070.77	270.011
1071.82	269.323
1072.87	268.453
1073.92	267.002
1074.96	264.989
1076.01	262.519
1077.06	260.102
1078.1	258.336
1079.15	256.379
1080.2	254.019
1081.24	252.221
1082.29	250.168
1083.33	246.725
1084.38	244.587
1085.42	243.34
1086.47	242.657
1087.51	242.889
1088.55	243.742
1089.6	244.632
1090.64	245.64
1091.68	246.355
1092.73	247.438
1093.77	248.428
1094.81	249.227
1095.85	250.666
1096.89	251.98
1097.93	252.766
1098.98	252.03
1100.02	251.645
1101.06	251.259
1102.1	250.885
1103.14	249.457
1104.18	248.241
1105.21	247.266
1106.25	246.318
1107.29	246.219
1108.33	246.002
1109.37	246.068
1110.41	245.509
1111.44	245.561
1112.48	245.979
1113.52	245.964
1114.56	245.003
1115.59	244.024
1116.63	243.154
1117.66	242.68
1118.7	242.045
1119.73	240.889
1120.77	239.765
1121.8	238.226
1122.84	237.115
1123.87	235.104
1124.91	234.062
1125.94	234.152
1126.97	234.872
1128.01	236.902
1129.04	238.372
1130.07	240.13
1131.11	241.538
1132.14	242.806
1133.17	244.211
1134.2	244.858
1135.23	246.261
1136.26	248.456
1137.29	250.273
1138.32	251.573
1139.35	252.34
1140.38	252.784
1141.41	253.463
1142.44	253.659
1143.47	254.102
1144.5	254.371
1145.53	255.12
1146.56	256.396
1147.58	258.305
1148.61	260.598
1149.64	262.153
1150.67	263.594
1151.69	264.583
1152.72	264.829
1153.75	265.523
1154.77	266.136
1155.8	265.902
1156.82	264.911
1157.85	263.088
1158.87	259.878
1159.9	256.26
1160.92	252.48
1161.95	248.706
1162.97	244.801
1163.99	241.408
1165.02	238.568
1166.04	235.834
1167.06	234.164
1168.08	233.163
1169.11	232.782
1170.13	232.385
1171.15	231.78
1172.17	232.121
1173.19	233.633
1174.21	235.474
1175.23	236.982
1176.25	238.482
1177.27	240.015
1178.29	240.788
1179.31	241.713
1180.33	245.445
1181.35	246.963
1182.37	247.69
1183.39	248.151
1184.4	247.195
1185.42	245.715
1186.44	243.733
1187.46	241.362
1188.47	239.357
1189.49	236.312
1190.51	233.343
1191.52	230.34
1192.54	227.322
1193.55	224.998
1194.57	222.532
1195.58	220.064
1196.6	217.677
1197.61	216.289
1198.63	215.915
1199.64	215.848
1200.65	215.605
1201.67	215.075
1202.68	214.512
1203.69	213.613
1204.7	213.53
1205.72	213.841
1206.73	214.444
1207.74	215.542
1208.75	216.548
1209.76	217.5
1210.77	218.075
1211.78	217.921
1212.79	218.815
1213.8	219.159
1214.81	218.355
1215.82	218.938
1216.83	219.359
1217.84	220.093
1218.85	220.91
1219.86	221.174
1220.87	221.264
1221.87	220.742
1222.88	220.518
1223.89	219.806
1224.9	218.905
1225.9	218.1
1226.91	217.775
1227.92	217.046
1228.92	215.855
1229.93	214.242
1230.93	212.746
1231.94	211.83
1232.94	210.964
1233.95	209.502
1234.95	207.786
1235.95	206.585
1236.96	205.434
1237.96	204.59
1238.96	204.449
1239.97	204.248
1240.97	203.937
1241.97	204.068
1242.97	203.92
1243.98	203.442
1244.98	202.739
1245.98	202.156
1246.98	201.312
1247.98	199.973
1248.98	198.653
1249.98	197.348
1250.98	196.242
1251.98	195.278
1252.98	194.452
1253.98	194.167
1254.98	193.804
1255.98	194.177
1256.97	194.347
1257.97	194.765
1258.97	195.26
1259.97	195.811
1260.97	195.587
1261.96	195.768
1262.96	196.103
1263.95	195.812
1264.95	194.812
1265.95	194.53
1266.94	193.981
1267.94	192.731
1268.93	192.199
1269.93	192.054
1270.92	192.554
1271.92	193.127
1272.91	193.453
1273.9	194.501
1274.9	196.295
1275.89	197.541
1276.88	198.169
1277.87	198.069
1278.87	198.18
1279.86	197.74
1280.85	197.049
1281.84	196.53
1282.83	195.591
1283.82	194.693
1284.81	194.333
1285.81	194.424
1286.8	193.84
1287.79	192.766
1288.77	190.683
1289.76	188.784
1290.75	187.827
1291.74	185.889
1292.73	184.386
1293.72	184.011
1294.71	183.598
1295.69	183.335
1296.68	182.94
1297.67	183.229
1298.65	183.709
1299.64	183.705
1300.63	183.793
1301.61	183.678
1302.6	184.268
1303.58	184.709
1304.57	184.271
1305.55	184.048
1306.54	183.624
1307.52	182.698
1308.51	181.259
1309.49	179.561
1310.48	178.286
1311.46	176.955
1312.44	176.895
1313.42	177.838
1314.41	178.923
1315.39	180.038
1316.37	181.336
1317.35	179.795
1318.33	182.61
1319.32	185.23
1320.3	187.599
1321.28	190.735
1322.26	193.255
1323.24	195.217
1324.22	195.586
1325.2	196.283
1326.18	196.072
1327.15	195.799
1328.13	194.644
1329.11	192.71
1330.09	190.206
1331.07	188.87
1332.05	187.685
1333.02	185.833
1334	183.328
1334.98	180.618
1335.95	178.473
1336.93	176.794
1337.91	176.84
1338.88	175.348
1339.86	173.946
1340.83	172.639
1341.81	172.299
1342.78	171.622
1343.76	170.753
1344.73	170.364
1345.7	170.295
1346.68	170.553
1347.65	170.427
1348.62	170.475
1349.6	169.651
1350.57	169.263
1351.54	168.821
1352.51	168.573
1353.49	168.362
1354.46	168.153
1355.43	167.588
1356.4	167.405
1357.37	166.872
1358.34	165.725
1359.31	164.592
1360.28	162.203
1361.25	160.216
1362.22	158.459
1363.19	157.11
1364.16	156.724
1365.12	156.847
1366.09	157.36
1367.06	158.373
1368.03	159.164
1369	160.117
1369.96	161.015
1370.93	161.612
1371.9	162.558
1372.86	163.297
1373.83	163.627
1374.79	163.13
1375.76	163.121
1376.73	162.934
1377.69	162.726
1378.66	162.28
1379.62	161.668
1380.58	161.623
1381.55	161.186
1382.51	160.601
1383.48	160.205
1384.44	159.556
1385.4	159.243
1386.36	158.747
1387.33	158.091
1388.29	157.728
1389.25	156.205
1390.21	152.939
1391.17	150.137
1392.13	150.779
1393.09	152.487
1394.06	157.664
1395.01	157.25
1395.97	156.624
1396.93	156.107
1397.89	155.606
1398.85	154.95
1399.81	154.252
1400.77	153.751
1401.73	153.35
1402.69	153.111
1403.64	152.809
1404.6	152.891
1405.56	152.336
1406.52	151.983
1407.47	151.371
1408.43	150.494
1409.39	149.915
1410.34	148.764
1411.3	147.634
1412.25	147.168
1413.21	146.378
1414.16	146.18
1415.12	145.293
1416.07	144.521
1417.03	143.978
1417.98	144.26
1418.93	144.353
1419.89	144.398
1420.84	144.632
1421.79	145.288
1422.74	146.062
1423.7	146.734
1424.65	146.904
1425.6	147.359
1426.55	147.456
1427.5	147.686
1428.45	148.257
1429.4	148.785
1430.35	149.044
1431.3	149.813
1432.25	150.211
1433.2	150.498
1434.15	150.845
1435.1	151.264
1436.05	151.459
1437	151.316
1437.95	150.691
1438.89	150.554
1439.84	150.056
1440.79	149.218
1441.74	148.655
1442.68	147.643
1443.63	146.665
1444.58	145.773
1445.52	144.511
1446.47	143.772
1447.41	143.192
1448.36	143.266
1449.3	143.233
1450.25	143.474
1451.19	142.838
1452.14	142.582
1453.08	142.56
1454.03	142.765
1454.97	142.427
1455.91	141.305
1456.85	140.889
1457.8	140.075
1458.74	138.993
1459.68	138.405
1460.62	138.2
1461.57	138.83
1462.51	139.355
1463.45	138.709
1464.39	138.671
1465.33	138.852
1466.27	139.107
1467.21	139.165
1468.15	138.711
1469.09	138.166
1470.03	137.886
1470.97	137.491
1471.9	136.493
1472.84	135.595
1473.78	134.172
1474.72	132.968
1475.66	131.712
1476.59	130.884
1477.53	129.903
1478.47	129.336
1479.4	128.876
1480.34	128.605
1481.28	129.358
1482.21	130.476
1483.15	131.324
1484.08	132.219
1485.02	133.042
1485.95	133.595
1486.89	134.654
1487.82	135.715
1488.76	136.414
1489.69	136.463
1490.62	136.642
1491.56	136.954
1492.49	136.808
1493.42	136.103
1494.35	134.873
1495.29	133.878
1496.22	133.66
1497.15	133.376
1498.08	132.548
1499.01	132.143
1499.94	131.983
1500.87	132.314
1501.8	131.463
1502.73	130.886
1503.66	130.513
1504.59	130.288
1505.52	130.482
1506.45	131.158
1507.38	131.763
1508.31	132.568
1509.23	133.505
1510.16	135.034
1511.09	136.599
1512.02	138.513
1512.94	140.706
1513.87	143.354
1514.8	146.298
1515.72	148.644
1516.65	151.709
1517.58	154.949
1518.5	157.837
1519.43	160.708
1520.35	163.258
1521.28	165.963
1522.2	168.793
1523.12	171.258
1524.05	173.886
1524.97	173.187
1525.9	171.738
1526.82	168.646
1527.74	166.026
1528.66	164.756
1529.59	164.191
1530.51	162.934
1531.43	162.097
1532.35	160.873
1533.27	159.112
1534.19	156.505
1535.11	154.003
1536.04	151.239
1536.96	148.056
1537.88	144.889
1538.8	141.98
1539.71	139.333
1540.63	136.967
1541.55	135.054
1542.47	133.668
1543.39	132.482
1544.31	131.025
1545.23	129.344
1546.14	128.735
1547.06	128.249
1547.98	127.735
1548.89	127.385
1549.81	127.53
1550.73	127.098
1551.64	126.608
1552.56	126.193
1553.47	126.018
1554.39	124.916
1555.31	124.071
1556.22	123.273
1557.13	122.597
1558.05	122.031
1558.96	120.605
1559.88	119.132
1560.79	117.489
1561.7	116.181
1562.62	114.792
1563.53	112.974
1564.44	111.002
1565.35	109.372
1566.27	108.119
1567.18	107.132
1568.09	106.394
1569	106.221
1569.91	106.569
1570.82	106.651
1571.73	106.944
1572.64	107.041
1573.55	107.04
1574.46	106.857
1575.37	107.127
1576.28	107.228
1577.19	106.757
1578.1	106.436
1579	106.07
1579.91	105.302
1580.82	103.42
1581.73	103.012
1582.63	105.429
1583.54	106.661
1584.45	106.322
1585.35	105.905
1586.26	105.541
1587.17	105.235
1588.07	104.929
1588.98	104.521
1589.88	105.477
1590.79	106.387
1591.69	106.811
1592.6	107.073
1593.5	107.401
1594.4	107.625
1595.31	107.779
1596.21	108.023
1597.11	107.971
1598.02	107.936
1598.92	107.992
1599.82	108.101
1600.72	108.086
1601.63	108.178
1602.53	108.277
1603.43	108.328
1604.33	108.389
1605.23	108.355
1606.13	108.348
1607.03	108.458
1607.93	108.621
1608.83	108.905
1609.73	109.202
1610.63	109.518
1611.53	109.658
1612.43	109.797
1613.32	109.718
1614.22	109.673
1615.12	109.484
1616.02	109.232
1616.92	108.75
1617.81	107.813
1618.71	106.866
1619.61	105.831
1620.5	105.112
1621.4	104.608
1622.29	104.322
1623.19	104.25
1624.08	104.29
1624.98	104.294
1625.87	104.425
1626.77	104.69
1627.66	105.026
1628.56	105.483
1629.45	106.117
1630.34	106.77
1631.24	107.45
1632.13	108.182
1632.84	108.684
1633.77	109.183
1634.7	109.432
1635.63	109.035
1636.56	108.755
1637.49	108.484
1638.42	108.277
1639.34	108.069
1640.27	108.043
1641.2	107.999
1642.13	107.321
1643.05	106.069
1643.98	105.276
1644.91	104.626
1645.83	104.07
1646.76	103.576
1647.68	103.233
1648.61	102.865
1649.54	102.713
1650.46	102.503
1651.39	102.191
1652.31	101.869
1653.23	101.572
1654.16	101.317
1655.08	100.953
1656.01	100.743
1656.93	100.533
1657.85	100.398
1658.78	100.338
1659.7	100.397
1660.62	100.617
1661.54	101.158
1662.47	101.657
1663.39	102.488
1664.31	103.293
1665.23	104.162
1666.15	104.992
1667.07	105.242
1667.99	105.338
1668.92	105.947
1669.84	106.815
1670.76	107.076
1671.68	106.622
1672.6	106.046
1673.52	105.408
1674.43	104.704
1675.35	104.013
1676.27	103.294
1677.19	102.997
1678.11	102.954
1679.03	102.942
1679.95	102.958
1680.86	103.009
1681.78	103.064
1682.7	103.135
1683.61	103.184
1684.53	103.21
1685.45	103.239
1686.36	103.156
1687.28	103.176
1688.2	102.773
1689.11	102.43
1690.03	101.978
1690.94	101.551
1691.86	100.746
1692.77	100.025
1693.69	99.3783
1694.6	99.0086
1695.52	98.6264
1696.43	98.3053
1697.34	97.9577
1698.26	97.9875
1699.17	97.9406
1700.08	97.7604
1700.99	97.5798
1701.91	97.3698
1702.82	96.7209
1703.73	96.241
1704.64	95.5161
1705.55	94.651
1706.47	93.8741
1707.38	93.0924
1708.29	92.1963
1709.2	91.122
1710.11	89.8204
1711.02	88.4862
1711.93	87.0587
1712.84	85.7397
1713.75	84.1933
1714.66	84.337
1715.57	85.6866
1716.48	87.5055
1717.39	89.2054
1718.29	90.5669
1719.2	91.5575
1720.11	92.136
1721.02	92.278
1721.93	89.8485
1722.83	89.4036
1723.74	89.2892
1724.65	89.3125
1725.55	89.8733
1726.46	90.5783
1727.37	90.5139
1728.27	90.3221
1729.18	90.0917
1730.08	89.8024
1730.99	89.5194
1731.89	89.288
1732.8	89.0853
1733.7	88.9181
1734.61	88.7312
1735.51	88.5517
1736.42	88.4001
1737.32	88.2455
1738.22	88.1224
1739.13	88.007
1740.03	87.8813
1740.93	87.8373
1741.83	87.7547
1742.74	87.514
1743.64	87.2765
1744.54	87.0285
1745.44	86.767
1746.34	86.5274
1747.24	86.27
1748.15	85.9839
1749.05	85.7878
1749.95	85.6149
1750.85	85.5348
1751.75	85.4978
1752.65	85.5353
1753.55	85.7383
1754.45	86.409
1755.35	86.9257
1756.25	87.495
1757.14	88.0973
1758.04	88.4864
1758.94	88.5113
1759.84	88.0625
1760.74	87.6169
1761.63	87.1821
1762.53	86.7398
1763.43	86.6054
1764.33	85.8752
1765.22	84.9771
1766.12	84.1997
1767.02	83.5682
1767.91	83.1194
1768.81	82.948
1769.7	82.8771
1770.6	83.1313
1771.49	83.5008
1772.39	84.1392
1773.28	84.8643
1774.18	85.5809
1775.07	86.2516
1775.97	86.4604
1776.86	86.7334
1777.75	86.703
1778.65	86.6249
1779.54	86.4284
1780.43	86.0841
1781.33	84.8773
1782.22	83.4344
1783.11	82.2722
1784	81.1389
1784.89	79.6319
1785.79	78.2415
1786.68	78.0379
1787.57	78.2364
1788.46	78.9073
1789.35	79.8635
1790.24	79.6785
1791.13	80.0077
1792.02	80.6656
1792.91	81.2614
1793.8	81.8554
1794.69	81.399
1795.58	80.7181
1796.47	79.8128
1797.36	78.683
1798.25	77.3289
1799.13	73.7651
