Acq. time (s)=	15
Accumulations=	2
Range (cm-¹)=	600...1800
Windows=	2
Autofocus=	Off
AutoExposure=	On
Spike filter=	Multiple accum.
Delay time (s)=	1
Binning=	1
Readout mode=	Signal
DeNoise=	Standard
ICS correction=	Off
Dark correction=	Off
Inst. Process=	Off
Instrument=	XploRA
Detector=	Syncerity
Objective=	x20LWD
Grating=	1200 gr/mm
Filter=	25%
Laser (nm)=	785 
Slit (µm)=	100 
Hole (µm)=	300 
Laser pol=	None
Raman pol=	None
Output=	Camera
StageXY=	Marzhauser
StageZ=	
X (µm)=	17282.9
Y (µm)=	-87.4
Project=	
Sample=	
Site=	
Title=	To12-T
Remark=	
Date=	15.10.2022 18:59
Acquired=	15.10.2022 18:59:09
600.787	362.637
601.956	364.068
603.126	366.721
604.294	370.33
605.463	374.414
606.631	378.77
607.8	382.157
608.967	385.024
610.135	388.085
611.302	391.277
612.468	393.294
613.635	395.579
614.802	398.462
615.968	401.199
617.133	403.641
618.299	406.048
619.464	408.116
620.629	410.362
621.793	411.43
622.958	412.822
624.121	414.278
625.285	415.462
626.448	415.272
627.612	414.261
628.774	413.541
629.937	412.795
631.099	412.395
632.261	411.915
633.423	411.628
634.584	411.538
635.745	411.223
636.906	411.393
638.066	412.127
639.227	412.134
640.386	412.782
641.546	413.664
642.705	413.815
643.864	413.075
645.023	412.598
646.181	412.053
647.339	411.607
648.497	410.714
649.655	409.748
650.812	409.371
651.969	409.377
653.125	409.541
654.282	409.815
655.438	410.395
656.593	410.844
657.75	411.751
658.905	412.813
660.059	413.646
661.214	415.003
662.368	416.786
663.522	418.825
664.676	420.96
665.83	423.081
666.983	424.308
668.136	424.352
669.288	424.83
670.441	424.189
671.592	424.326
672.744	425.464
673.895	425.7
675.046	425.237
676.197	424.505
677.348	423.545
678.498	422.003
679.648	420.662
680.798	419.723
681.947	419.908
683.096	420.096
684.245	421.797
685.394	429.149
686.542	432.137
687.69	433.051
688.837	433.56
689.984	434.119
691.132	434.169
692.278	434.254
693.425	433.878
694.571	432.792
695.717	432.454
696.863	432.122
698.008	430.332
699.152	428.791
700.298	428.221
701.442	426.758
702.586	426.312
703.73	426.003
704.873	425.17
706.017	424.402
707.16	424.162
708.302	423.402
709.445	422.351
710.586	421.725
711.729	420.979
712.87	419.983
714.012	419.323
715.152	419.115
716.293	418.011
717.433	417.988
718.573	417.23
719.713	417.397
720.853	417.804
721.991	418.597
723.131	419.02
724.269	418.218
725.408	418.157
726.545	418.235
727.683	420.202
728.821	423.038
729.958	423.887
731.095	424.596
732.231	425.363
733.368	426.491
734.503	427.752
735.639	428.746
736.775	428.982
737.91	429.381
739.045	428.405
740.179	427.857
741.313	427.125
742.447	426.901
743.581	426.671
744.714	426.332
745.847	425.951
746.98	425.105
748.113	424.74
749.245	423.556
750.377	422.131
751.509	420.123
752.64	418.045
753.771	415.084
754.902	412.638
756.033	410.383
757.163	407.133
758.293	404.577
759.423	402.942
760.551	401.066
761.681	398.126
762.81	395.735
763.938	394.527
765.066	393.311
766.194	393.094
767.321	393.511
768.449	393.573
769.576	393.806
770.703	393.509
771.83	393.607
772.955	393.416
774.081	392.769
775.207	392.581
776.332	392.202
777.457	392.259
778.582	391.984
779.707	390.427
780.831	388.512
781.954	387.445
783.078	386.764
784.201	384.054
785.324	381.889
786.447	379.39
787.569	376.413
788.691	374.082
789.813	371.712
790.935	369.696
792.056	367.553
793.177	366.113
794.297	365.125
795.418	364.567
796.539	364.409
797.658	364.891
798.777	365.579
799.897	365.664
801.016	365.909
802.134	366.257
803.253	366.495
804.371	366.72
805.489	366.276
806.606	365.833
807.723	365.347
808.84	364.17
809.957	362.548
811.073	361.634
812.19	360.218
813.305	359.119
814.421	357.931
815.536	357.098
816.651	355.817
817.766	355.201
818.88	354.623
819.994	354.52
821.108	353.676
822.221	351.954
823.335	351.2
824.448	350.156
825.56	349.767
826.673	349.39
827.784	349.944
828.897	350.671
830.008	352.024
831.119	352.743
832.23	353.524
833.341	354.716
834.451	356.019
835.561	357.034
836.671	357.236
837.78	357.197
838.89	357.37
839.998	357.527
841.108	357.598
842.216	358.05
843.324	357.549
844.431	354.889
845.539	353.33
846.646	351.62
847.753	349.613
848.859	347.105
849.966	344.826
851.071	343.491
852.178	342.638
853.283	342.241
854.388	342.175
855.494	342.655
856.598	341.818
857.703	340.104
858.806	338.309
859.91	337.344
861.014	336.175
862.116	334.924
863.22	333.939
864.322	333.554
865.425	333.046
866.527	332.986
867.628	333.136
868.73	334.548
869.831	334.521
870.932	333.45
872.032	332.942
873.133	332.187
874.233	331.083
875.333	330.305
876.432	328.505
877.532	326.211
878.631	323.958
879.729	321.184
880.828	318.662
881.926	316.617
883.023	315.344
884.121	314.799
885.218	315.028
886.315	316.03
887.412	317.177
888.508	318.535
889.604	319.555
890.699	320.504
891.795	321.034
892.89	321.402
893.985	321.147
895.08	321.168
896.174	321.121
897.268	320.161
898.362	319.131
899.456	317.489
900.549	315.502
901.642	313.754
902.734	312.495
903.827	311.956
904.919	312.34
906.011	312.437
907.102	313.035
908.193	314.158
909.284	314.988
910.375	314.888
911.465	315.203
912.555	315.307
913.645	315.664
914.734	315.096
915.824	314.776
916.913	314.763
918.001	314.816
919.09	313.002
920.177	310.895
921.266	308.041
922.353	305.374
923.44	302.191
924.527	298.867
925.614	296.547
926.7	294.3
927.786	291.411
928.873	289.928
929.958	289.007
931.043	288.381
932.128	288.893
933.213	289.387
934.297	290.295
935.381	291.301
936.465	291.983
937.549	291.453
938.632	291.535
939.715	291.588
940.798	291.409
941.881	291.509
942.962	291.714
944.044	292.484
945.125	291.365
946.207	289.776
947.288	288.17
948.368	287.376
949.449	286.165
950.529	285.573
951.61	284.5
952.689	282.738
953.769	281.758
954.847	281.299
955.926	280.955
957.004	281.172
958.082	281.164
959.16	281.198
960.238	281.561
961.316	282.064
962.392	280.146
963.469	278.064
964.546	275.584
965.622	274.147
966.698	273.154
967.774	272.545
968.849	272.747
969.924	276.26
970.998	279.034
972.073	281.362
973.148	282.076
974.221	282.648
975.295	283.224
976.369	283.371
977.441	283.986
978.514	284.396
979.587	284.742
980.659	285.743
981.731	286.807
982.802	287.866
983.874	289.098
984.945	289.225
986.016	288.991
987.087	287.261
988.157	285.762
989.227	285.559
990.296	285.902
991.366	286.339
992.435	286.203
993.504	285.526
994.573	284.63
995.641	284.023
996.709	283.397
997.777	282.763
998.844	282.188
999.911	280.785
1000.98	278.63
1002.05	275.272
1003.11	273.153
1004.18	271.934
1005.24	270.991
1006.31	269.044
1007.37	267.916
1008.44	266.669
1009.5	266.53
1010.57	266.138
1011.63	265.925
1012.7	264.252
1013.76	262.185
1014.82	260.153
1015.89	258.506
1016.95	257.623
1018.01	256.81
1019.07	254.801
1020.13	254.066
1021.2	253.034
1022.26	253.288
1023.32	250.921
1024.38	248.527
1025.44	246.515
1026.5	244.855
1027.56	244.088
1028.62	243.13
1029.68	242.352
1030.74	242.728
1031.8	240.979
1032.85	242.147
1033.91	243.043
1034.97	243.123
1036.03	244.089
1037.09	244.681
1038.14	245.448
1039.2	245.909
1040.26	246.407
1041.31	246.745
1042.37	247.289
1043.42	247.467
1044.48	247.518
1045.53	247.083
1046.59	247.236
1047.64	246.886
1048.7	246.869
1049.75	246.026
1050.81	245.246
1051.86	243.532
1052.91	242.211
1053.97	241.17
1055.02	239.677
1056.07	238.825
1057.12	238.233
1058.17	237.7
1059.23	237.845
1060.28	238.277
1061.33	238.948
1062.38	239.848
1063.43	240.732
1064.48	241.105
1065.53	240.725
1066.58	239.049
1067.63	237.583
1068.68	238.914
1069.72	238.355
1070.77	237.167
1071.82	235.66
1072.87	234.691
1073.92	233.875
1074.96	233.254
1076.01	232.872
1077.06	232.579
1078.1	231.239
1079.15	229.969
1080.2	228.694
1081.24	228.2
1082.29	227.488
1083.33	226.7
1084.38	226.007
1085.42	225.608
1086.47	225.741
1087.51	225.972
1088.55	226.027
1089.6	225.91
1090.64	226.018
1091.68	226.033
1092.73	226.468
1093.77	226.698
1094.81	227.162
1095.85	227.453
1096.89	227.639
1097.93	227.484
1098.98	226.294
1100.02	225.087
1101.06	224.374
1102.1	223.49
1103.14	222.767
1104.18	222.299
1105.21	222
1106.25	222.358
1107.29	222.834
1108.33	223.161
1109.37	222.82
1110.41	222.598
1111.44	222.531
1112.48	223.534
1113.52	224.995
1114.56	225.726
1115.59	225.92
1116.63	224.883
1117.66	223.219
1118.7	221.188
1119.73	219.291
1120.77	217.432
1121.8	215.572
1122.84	213.883
1123.87	212.547
1124.91	213.046
1125.94	213.049
1126.97	213.284
1128.01	213.48
1129.04	214.117
1130.07	214.994
1131.11	216.134
1132.14	217.518
1133.17	218.361
1134.2	218.585
1135.23	219.388
1136.26	220.292
1137.29	221.254
1138.32	221.97
1139.35	223.211
1140.38	225.338
1141.41	227.733
1142.44	229.261
1143.47	230.758
1144.5	231.502
1145.53	231.023
1146.56	231.615
1147.58	232.271
1148.61	232.838
1149.64	234.101
1150.67	234.799
1151.69	235.73
1152.72	237.366
1153.75	238.584
1154.77	239.618
1155.8	239.484
1156.82	238.64
1157.85	237.473
1158.87	235.209
1159.9	232.623
1160.92	229.457
1161.95	226.453
1162.97	223.636
1163.99	220.934
1165.02	217.981
1166.04	215.574
1167.06	213.179
1168.08	210.829
1169.11	208.764
1170.13	207.305
1171.15	206.441
1172.17	206.292
1173.19	206.706
1174.21	207.587
1175.23	208.914
1176.25	209.256
1177.27	208.463
1178.29	209.059
1179.31	209.587
1180.33	210.461
1181.35	211.697
1182.37	212.914
1183.39	213.904
1184.4	214.258
1185.42	214.179
1186.44	213.694
1187.46	212.771
1188.47	210.903
1189.49	208.869
1190.51	207.322
1191.52	206.283
1192.54	205.261
1193.55	204.207
1194.57	202.932
1195.58	201.731
1196.6	200.501
1197.61	198.919
1198.63	197.325
1199.64	195.788
1200.65	194.868
1201.67	194.436
1202.68	194.309
1203.69	194.434
1204.7	194.56
1205.72	194.876
1206.73	195.274
1207.74	195.447
1208.75	195.697
1209.76	195.846
1210.77	195.813
1211.78	195.839
1212.79	195.144
1213.8	194.324
1214.81	193.356
1215.82	192.475
1216.83	191.73
1217.84	191.105
1218.85	190.605
1219.86	190.281
1220.87	190.006
1221.87	190.4
1222.88	191.048
1223.89	191.721
1224.9	192.268
1225.9	192.623
1226.91	192.799
1227.92	192.725
1228.92	192.469
1229.93	191.985
1230.93	191.315
1231.94	190.406
1232.94	189.308
1233.95	187.89
1234.95	186.272
1235.95	184.354
1236.96	182.205
1237.96	179.807
1238.96	177.383
1239.97	176.298
1240.97	175.819
1241.97	175.917
1242.97	175.59
1243.98	173.902
1244.98	172.342
1245.98	171.905
1246.98	171.687
1247.98	172.299
1248.98	173.1
1249.98	173.387
1250.98	172.601
1251.98	172.635
1252.98	173.253
1253.98	172.611
1254.98	172.031
1255.98	171.507
1256.97	171.038
1257.97	170.647
1258.97	170.31
1259.97	170.163
1260.97	170.063
1261.96	170.055
1262.96	170.12
1263.95	170.363
1264.95	170.922
1265.95	171.783
1266.94	172.401
1267.94	172.77
1268.93	172.869
1269.93	172.599
1270.92	170.357
1271.92	167.897
1272.91	167.328
1273.9	168.693
1274.9	169.722
1275.89	169.641
1276.88	169.68
1277.87	168.312
1278.87	168.465
1279.86	168.613
1280.85	168.69
1281.84	168.821
1282.83	169.359
1283.82	169.534
1284.81	169.437
1285.81	168.908
1286.8	168.23
1287.79	167.307
1288.77	166.073
1289.76	164.578
1290.75	163.007
1291.74	161.715
1292.73	160.391
1293.72	159.439
1294.71	159.231
1295.69	159.443
1296.68	159.723
1297.67	159.869
1298.65	160.093
1299.64	160.306
1300.63	160.615
1301.61	160.643
1302.6	160.509
1303.58	160.178
1304.57	159.889
1305.55	159.634
1306.54	159.885
1307.52	159.985
1308.51	158.956
1309.49	157.941
1310.48	156.007
1311.46	152.89
1312.44	151.273
1313.42	150.546
1314.41	150.524
1315.39	150.554
1316.37	151.303
1317.35	151.792
1318.33	153.239
1319.32	154.56
1320.3	158.178
1321.28	160.769
1322.26	166.458
1323.24	169.841
1324.22	173.811
1325.2	175.728
1326.18	176.58
1327.15	176.354
1328.13	175.524
1329.11	174.054
1330.09	169.389
1331.07	166.678
1332.05	163.763
1333.02	160.536
1334	157.347
1334.98	154.582
1335.95	152.364
1336.93	150.855
1337.91	149.881
1338.88	150.069
1339.86	149.355
1340.83	149
1341.81	148.781
1342.78	148.783
1343.76	148.953
1344.73	149.17
1345.7	149.35
1346.68	149.467
1347.65	149.488
1348.62	149.301
1349.6	149.037
1350.57	148.559
1351.54	147.994
1352.51	147.164
1353.49	146.159
1354.46	145.014
1355.43	143.703
1356.4	142.215
1357.37	140.556
1358.34	138.599
1359.31	136.836
1360.28	135.591
1361.25	134.973
1362.22	134.578
1363.19	134.475
1364.16	134.616
1365.12	134.901
1366.09	135.304
1367.06	135.714
1368.03	136.307
1369	136.806
1369.96	137.544
1370.93	138.185
1371.9	139.129
1372.86	140.072
1373.83	141.079
1374.79	141.491
1375.76	141.092
1376.73	140.46
1377.69	139.731
1378.66	138.925
1379.62	138.114
1380.58	137.428
1381.55	136.713
1382.51	136.067
1383.48	135.438
1384.44	134.93
1385.4	134.413
1386.36	133.998
1387.33	133.629
1388.29	133.279
1389.25	132.975
1390.21	132.683
1391.17	132.525
1392.13	132.407
1393.09	132.318
1394.06	132.246
1395.01	132.217
1395.97	132.169
1396.93	132.126
1397.89	132.031
1398.85	131.94
1399.81	131.842
1400.77	130.217
1401.73	128.48
1402.69	127.56
1403.64	126.778
1404.6	126.31
1405.56	126.192
1406.52	126.776
1407.47	127.725
1408.43	128.476
1409.39	128.115
1410.34	127.932
1411.3	128.596
1412.25	129.08
1413.21	129.633
1414.16	129.979
1415.12	130.324
1416.07	130.703
1417.03	130.984
1417.98	131.074
1418.93	130.642
1419.89	129.937
1420.84	128.831
1421.79	127.748
1422.74	126.892
1423.7	126.158
1424.65	125.872
1425.6	125.756
1426.55	126.202
1427.5	126.616
1428.45	127.525
1429.4	128.156
1430.35	129.01
1431.3	130.039
1432.25	131.683
1433.2	133.699
1434.15	135.895
1435.1	136.241
1436.05	134.41
1437	132.447
1437.95	130.714
1438.89	129.368
1439.84	128.424
1440.79	129.977
1441.74	129.435
1442.68	128.839
1443.63	128.283
1444.58	127.433
1445.52	126.432
1446.47	125.43
1447.41	124.496
1448.36	123.782
1449.3	123.347
1450.25	122.913
1451.19	122.447
1452.14	121.742
1453.08	120.911
1454.03	120.092
1454.97	119.641
1455.91	119.605
1456.85	119.888
1457.8	120.175
1458.74	120.47
1459.68	120.538
1460.62	120.564
1461.57	120.429
1462.51	120.155
1463.45	119.678
1464.39	118.864
1465.33	118.217
1466.27	117.606
1467.21	117.016
1468.15	116.527
1469.09	116.215
1470.03	115.812
1470.97	115.423
1471.9	115.095
1472.84	114.786
1473.78	114.501
1474.72	114.248
1475.66	114.085
1476.59	114.109
1477.53	113.997
1478.47	114.251
1479.4	114.489
1480.34	114.798
1481.28	115.102
1482.21	115.44
1483.15	115.704
1484.08	116.063
1485.02	116.349
1485.95	116.376
1486.89	116.373
1487.82	115.897
1488.76	115.581
1489.69	115.155
1490.62	114.815
1491.56	114.458
1492.49	114.09
1493.42	113.746
1494.35	113.368
1495.29	113.129
1496.22	112.857
1497.15	112.554
1498.08	112.299
1499.01	112.052
1499.94	111.799
1500.87	111.574
1501.8	111.279
1502.73	110.993
1503.66	110.737
1504.59	110.252
1505.52	109.922
1506.45	109.693
1507.38	109.681
1508.31	109.874
1509.23	111.291
1510.16	112.698
1511.09	114.461
1512.02	116.571
1512.94	119.03
1513.87	121.729
1514.8	124.872
1515.72	128.393
1516.65	131.48
1517.58	134.01
1518.5	136.854
1519.43	139.545
1520.35	141.888
1521.28	144.57
1522.2	146.428
1523.12	146.69
1524.05	146.68
1524.97	146.688
1525.9	145.821
1526.82	144.622
1527.74	143.275
1528.66	142.061
1529.59	140.787
1530.51	139.426
1531.43	137.996
1532.35	136.317
1533.27	134.438
1534.19	131.882
1535.11	128.175
1536.04	124.207
1536.96	120.587
1537.88	117.775
1538.8	115.439
1539.71	114.1
1540.63	113.369
1541.55	113.067
1542.47	112.856
1543.39	111.155
1544.31	109.702
1545.23	108.632
1546.14	108.081
1547.06	107.819
1547.98	107.809
1548.89	107.976
1549.81	108.049
1550.73	108.218
1551.64	108.428
1552.56	108.548
1553.47	108.559
1554.39	108.364
1555.31	107.975
1556.22	107.495
1557.13	106.887
1558.05	106.07
1558.96	105.24
1559.88	104.391
1560.79	103.427
1561.7	102.301
1562.62	101.216
1563.53	100.163
1564.44	99.1156
1565.35	98.0906
1566.27	97.1158
1567.18	96.277
1568.09	95.5104
1569	94.8624
1569.91	94.3697
1570.82	93.9647
1571.73	93.7397
1572.64	93.4352
1573.55	93.4951
1574.46	93.6531
1575.37	93.4453
1576.28	93.3182
1577.19	93.3997
1578.1	93.4571
1579	93.8825
1579.91	94.1211
1580.82	94.0737
1581.73	93.9406
1582.63	93.8072
1583.54	93.4725
1584.45	92.8611
1585.35	92.2628
1586.26	91.7378
1587.17	91.3133
1588.07	91.1811
1588.98	91.4418
1589.88	91.6854
1590.79	92.1488
1591.69	90.8787
1592.6	92.3476
1593.5	92.2827
1594.4	92.2779
1595.31	92.284
1596.21	92.3863
1597.11	92.5863
1598.02	92.8167
1598.92	93.5285
1599.82	94.0432
1600.72	94.2334
1601.63	94.3817
1602.53	94.5218
1603.43	94.7399
1604.33	94.9015
1605.23	94.9864
1606.13	94.8598
1607.03	94.5677
1607.93	94.301
1608.83	94.5027
1609.73	94.7727
1610.63	94.9371
1611.53	95.3534
1612.43	95.8809
1613.32	96.4097
1614.22	96.8712
1615.12	96.7824
1616.02	96.57
1616.92	96.2009
1617.81	95.9488
1618.71	95.3544
1619.61	94.5257
1620.5	93.6033
1621.4	92.7572
1622.29	91.9431
1623.19	91.8243
1624.08	92.1771
1624.98	92.6393
1625.87	92.9697
1626.77	92.8376
1627.66	92.5489
1628.56	92.6052
1629.45	92.7764
1630.34	92.8445
1631.24	92.5723
1632.13	92.0367
1632.84	91.4085
1633.77	90.91
1634.7	90.9244
1635.63	91.0442
1636.56	91.185
1637.49	91.3342
1638.42	91.4039
1639.34	91.3425
1640.27	91.3814
1641.2	91.3272
1642.13	90.9547
1643.05	90.4824
1643.98	89.9569
1644.91	88.8529
1645.83	87.6544
1646.76	86.4718
1647.68	85.3887
1648.61	84.6758
1649.54	84.14
1650.46	83.8625
1651.39	83.7553
1652.31	83.8802
1653.23	84.1369
1654.16	84.5528
1655.08	85.1202
1656.01	85.801
1656.93	86.5464
1657.85	87.3041
1658.78	87.7183
1659.7	88.382
1660.62	89.0298
1661.54	89.5519
1662.47	89.6789
1663.39	89.8501
1664.31	89.9657
1665.23	89.9724
1666.15	89.1103
1667.07	88.1274
1667.99	87.1694
1668.92	86.3529
1669.84	85.7108
1670.76	85.2897
1671.68	85.2141
1672.6	85.4502
1673.52	86.0275
1674.43	86.2837
1675.35	86.1526
1676.27	85.1531
1677.19	84.4733
1678.11	83.9113
1679.03	83.3577
1679.95	82.7103
1680.86	81.9522
1681.78	80.9906
1682.7	80.1637
1683.61	79.8826
1684.53	80.1365
1685.45	80.7792
1686.36	81.5376
1687.28	82.4846
1688.2	83.6056
1689.11	83.366
1690.03	83.1008
1690.94	82.8472
1691.86	82.5548
1692.77	82.2425
1693.69	81.9596
1694.6	81.6388
1695.52	81.3437
1696.43	81.0243
1697.34	80.7126
1698.26	79.7735
1699.17	78.8415
1700.08	78.095
1700.99	77.1965
1701.91	77.3467
1702.82	77.101
1703.73	78.1149
1704.64	77.8618
1705.55	77.4852
1706.47	77.3613
1707.38	77.3399
1708.29	76.7107
1709.2	76.164
1710.11	75.6959
1711.02	75.3024
1711.93	74.9101
1712.84	74.6087
1713.75	74.3143
1714.66	74.0776
1715.57	73.8628
1716.48	73.7053
1717.39	73.6147
1718.29	73.5174
1719.2	73.3804
1720.11	73.4823
1721.02	73.6484
1721.93	73.863
1722.83	74.0786
1723.74	74.3404
1724.65	74.5818
1725.55	74.8206
1726.46	75.0486
1727.37	75.2082
1728.27	75.3996
1729.18	75.466
1730.08	75.5721
1730.99	75.1297
1731.89	74.6932
1732.8	74.3309
1733.7	74.0387
1734.61	73.7604
1735.51	73.5585
1736.42	73.636
1737.32	74.108
1738.22	74.5784
1739.13	74.9564
1740.03	75.2906
1740.93	75.3777
1741.83	75.1709
1742.74	74.9564
1743.64	74.6741
1744.54	74.3795
1745.44	74.021
1746.34	73.5351
1747.24	73.0587
1748.15	72.665
1749.05	73.9045
1749.95	73.4675
1750.85	71.7182
1751.75	67.953
1752.65	67.151
1753.55	67.778
1754.45	69.9649
1755.35	76.1192
1756.25	76.0091
1757.14	75.7558
1758.04	75.461
1758.94	75.1518
1759.84	74.816
1760.74	74.4647
1761.63	74.1074
1762.53	73.7336
1763.43	73.3638
1764.33	71.4932
1765.22	70.0857
1766.12	69.0644
1767.02	68.4119
1767.91	68.1816
1768.81	68.3149
1769.7	68.8968
1770.6	69.9452
1771.49	70.857
1772.39	71.076
1773.28	70.7547
1774.18	70.3861
1775.07	69.9754
1775.97	69.2461
1776.86	68.8764
1777.75	68.6016
1778.65	68.3688
1779.54	68.2284
1780.43	68.2855
1781.33	68.3602
1782.22	68.5917
1783.11	68.9058
1784	69.3858
1784.89	69.8536
1785.79	70.3572
1786.68	70.3697
1787.57	70.3592
1788.46	70.2661
1789.35	70.0318
1790.24	69.9541
1791.13	69.9042
1792.02	69.8365
1792.91	69.7001
1793.8	69.5396
1794.69	69.4013
1795.58	69.3063
1796.47	69.2803
1797.36	69.4439
1798.25	69.5816
1799.13	69.7213
