Acq. time (s)=	15
Accumulations=	2
Range (cm-¹)=	600...1800
Windows=	2
Autofocus=	Off
AutoExposure=	On
Spike filter=	Multiple accum.
Delay time (s)=	1
Binning=	1
Readout mode=	Signal
DeNoise=	Standard
ICS correction=	Off
Dark correction=	Off
Inst. Process=	Off
Instrument=	XploRA
Detector=	Syncerity
Objective=	x20LWD
Grating=	1200 gr/mm
Filter=	25%
Laser (nm)=	785 
Slit (µm)=	100 
Hole (µm)=	300 
Laser pol=	None
Raman pol=	None
Output=	Camera
StageXY=	Marzhauser
StageZ=	
X (µm)=	-3048.9
Y (µm)=	-7344.5
Project=	
Sample=	
Site=	
Title=	To8-T
Remark=	
Date=	14.10.2022 23:15
Acquired=	14.10.2022 23:15:13
600.787	695.412
601.956	694.54
603.126	689.861
604.294	693.721
605.463	696.664
606.631	705.874
607.8	709.921
608.967	727.174
610.135	731.569
611.302	724.413
612.468	698.079
613.635	715.522
614.802	735.497
615.968	750.822
617.133	761.906
618.299	763.626
619.464	765.685
620.629	767.694
621.793	768.984
622.958	769.874
624.121	770.705
625.285	771.765
626.448	772.757
627.612	775.221
628.774	776.397
629.937	776.576
631.099	776.22
632.261	775.385
633.423	774.063
634.584	772.712
635.745	771.102
636.906	769.197
638.066	767.376
639.227	765.788
640.386	764.692
641.546	764.83
642.705	766.935
643.864	769.173
645.023	771.381
646.181	771.038
647.339	770.211
648.497	769.457
649.655	769.695
650.812	770.247
651.969	770.206
653.125	763.299
654.282	763.351
655.438	763.784
656.593	764.182
657.75	764.738
658.905	765.44
660.059	766.032
661.214	767.62
662.368	769.248
663.522	770.725
664.676	771.913
665.83	772.273
666.983	772.487
668.136	772.41
669.288	772.125
670.441	771.699
671.592	771.321
672.744	771.204
673.895	771.187
675.046	771.546
676.197	772.11
677.348	772.903
678.498	773.619
679.648	773.83
680.798	773.94
681.947	773.852
683.096	774.437
684.245	776.372
685.394	778.725
686.542	781.053
687.69	783.683
688.837	785.129
689.984	786.068
691.132	786.724
692.278	786.862
693.425	786.792
694.571	786.647
695.717	786.301
696.863	785.677
698.008	784.857
699.152	783.82
700.298	782.568
701.442	781.132
702.586	779.539
703.73	777.657
704.873	775.675
706.017	773.366
707.16	770.897
708.302	768.038
709.445	764.82
710.586	759.162
711.729	757.593
712.87	757.937
714.012	760.554
715.152	765.963
716.293	768.974
717.433	770.599
718.573	770.425
719.713	766.881
720.853	762.224
721.991	757.269
723.131	753.164
724.269	749.426
725.408	746.003
726.545	742.932
727.683	740.312
728.821	738.675
729.958	737.911
731.095	738.344
732.231	742.028
733.368	746.919
734.503	751.78
735.639	756.446
736.775	760.854
737.91	765.255
739.045	769.131
740.179	772.421
741.313	774.957
742.447	776.829
743.581	778.044
744.714	778.345
745.847	777.709
746.98	776.211
748.113	773.903
749.245	770.859
750.377	767.22
751.509	763.323
752.64	758.489
753.771	753.765
754.902	748.829
756.033	743.927
757.163	738.862
758.293	734.064
759.423	729.451
760.551	725.14
761.681	721.247
762.81	717.409
763.938	713.827
765.066	710.398
766.194	707.204
767.321	704.146
768.449	701.304
769.576	698.595
770.703	696.028
771.83	693.645
772.955	691.059
774.081	688.884
775.207	686.835
776.332	685.054
777.457	683.411
778.582	681.84
779.707	680.35
780.831	678.864
781.954	677.535
783.078	676.199
784.201	675.018
785.324	673.715
786.447	672.654
787.569	671.476
788.691	670.458
789.813	669.408
790.935	668.344
792.056	667.26
793.177	666.08
794.297	664.865
795.418	663.749
796.539	662.151
797.658	660.467
798.777	658.835
799.897	656.987
801.016	655.229
802.134	653.688
803.253	652.257
804.371	651.52
805.489	650.438
806.606	649.358
807.723	648.196
808.84	647.109
809.957	646.094
811.073	645.365
812.19	644.629
813.305	643.999
814.421	643.322
815.536	642.63
816.651	641.892
817.766	640.896
818.88	639.81
819.994	638.729
821.108	637.652
822.221	636.624
823.335	635.779
824.448	635.211
825.56	634.771
826.673	634.456
827.784	634.154
828.897	633.687
830.008	633.105
831.119	631.84
832.23	630.932
833.341	629.942
834.451	628.918
835.561	627.191
836.671	624.53
837.78	621.328
838.89	618.437
839.998	615.669
841.108	613.523
842.216	611.494
843.324	609.818
844.431	608.434
845.539	607.516
846.646	606.914
847.753	606.577
848.859	606.341
849.966	606.137
851.071	605.963
852.178	604.499
853.283	603.897
854.388	603.143
855.494	602.464
856.598	601.32
857.703	599.484
858.806	596.718
859.91	593.549
861.014	590.391
862.116	587.906
863.22	586.119
864.322	584.834
865.425	585.442
866.527	584.208
867.628	581.159
868.73	576.046
869.831	573.196
870.932	570.374
872.032	567.87
873.133	565.445
874.233	563.575
875.333	561.416
876.432	559.201
877.532	557.373
878.631	555.862
879.729	554.852
880.828	554.896
881.926	555.779
883.023	557.568
884.121	559.709
885.218	561.098
886.315	562.097
887.412	562.697
888.508	562.832
889.604	562.569
890.699	562.087
891.795	561.31
892.89	560.285
893.985	559.273
895.08	558.341
896.174	557.568
897.268	556.122
898.362	555.25
899.456	555.112
900.549	555.79
901.642	556.558
902.734	557.473
903.827	558.445
904.919	559.514
906.011	560.562
907.102	561.609
908.193	562.639
909.284	563.583
910.375	564.311
911.465	564.89
912.555	563.045
913.645	560.624
914.734	558.039
915.824	555.801
916.913	553.46
918.001	551.203
919.09	548.923
920.177	546.802
921.266	544.819
922.353	542.768
923.44	540.885
924.527	539.219
925.614	538.234
926.7	537.721
927.786	538.053
928.873	536.716
929.958	534.833
931.043	532.682
932.128	530.247
933.213	527.584
934.297	524.522
935.381	521.383
936.465	518.123
937.549	514.302
938.632	510.462
939.715	506.844
940.798	503.392
941.881	500.899
942.962	499.125
944.044	497.548
945.125	496.642
946.207	496.025
947.288	495.745
948.368	495.691
949.449	495.682
950.529	495.619
951.61	495.51
952.689	495.355
953.769	494.863
954.847	494.35
955.926	492.872
957.004	491.083
958.082	489.049
959.16	486.967
960.238	484.977
961.316	483.491
962.392	482.528
963.469	481.784
964.546	481.564
965.622	482.143
966.698	483.138
967.774	484.146
968.849	485.175
969.924	485.67
970.998	486.202
972.073	486.768
973.148	487.326
974.221	487.997
975.295	488.394
976.369	488.709
977.441	489.042
978.514	489.495
979.587	489.99
980.659	490.632
981.731	491.815
982.802	493.622
983.874	495.103
984.945	496.48
986.016	497.559
987.087	497.889
988.157	498.093
989.227	498.181
990.296	498.121
991.366	497.836
992.435	497.45
993.504	496.56
994.573	495.503
995.641	494.402
996.709	493.498
997.777	493.044
998.844	492.75
999.911	492.91
1000.98	492.832
1002.05	492.442
1003.11	491.692
1004.18	490.018
1005.24	487.825
1006.31	484.931
1007.37	481.342
1008.44	477.299
1009.5	472.716
1010.57	467.603
1011.63	462.143
1012.7	456.686
1013.76	451.202
1014.82	446.399
1015.89	442.656
1016.95	440.043
1018.01	439.104
1019.07	438.92
1020.13	438.049
1021.2	437.404
1022.26	436.886
1023.32	436.619
1024.38	436.35
1025.44	435.946
1026.5	435.319
1027.56	434.575
1028.62	433.471
1029.68	431.508
1030.74	429.26
1031.8	426.901
1032.85	424.725
1033.91	422.952
1034.97	421.9
1036.03	421.664
1037.09	421.845
1038.14	422.925
1039.2	424.641
1040.26	426.732
1041.31	429.312
1042.37	431.857
1043.42	433.651
1044.48	434.519
1045.53	434.274
1046.59	432.911
1047.64	430.756
1048.7	427.669
1049.75	424.472
1050.81	421.43
1051.86	418.859
1052.91	416.498
1053.97	414.509
1055.02	412.832
1056.07	411.594
1057.12	410.642
1058.17	409.987
1059.23	409.607
1060.28	409.497
1061.33	409.708
1062.38	410.052
1063.43	411.13
1064.48	412.304
1065.53	413.6
1066.58	414.31
1067.63	413.759
1068.68	413.01
1069.72	411.903
1070.77	410.509
1071.82	408.982
1072.87	407.387
1073.92	405.84
1074.96	404.268
1076.01	402.618
1077.06	401.065
1078.1	399.609
1079.15	397.983
1080.2	397.093
1081.24	396.419
1082.29	395.892
1083.33	395.507
1084.38	395.042
1085.42	394.429
1086.47	393.12
1087.51	391.935
1088.55	390.173
1089.6	388.463
1090.64	386.769
1091.68	385.152
1092.73	383.972
1093.77	383.515
1094.81	383.326
1095.85	383.424
1096.89	383.785
1097.93	384.389
1098.98	385.201
1100.02	386.195
1101.06	387.633
1102.1	389.02
1103.14	390.336
1104.18	391.366
1105.21	391.068
1106.25	390.163
1107.29	389.084
1108.33	387.696
1109.37	386.15
1110.41	384.585
1111.44	383.15
1112.48	381.804
1113.52	380.452
1114.56	379.195
1115.59	378.168
1116.63	377.35
1117.66	376.696
1118.7	376.646
1119.73	376.569
1120.77	377.155
1121.8	377.881
1122.84	378.19
1123.87	377.095
1124.91	375.382
1125.94	373.094
1126.97	370.744
1128.01	368.547
1129.04	367.299
1130.07	366.735
1131.11	366.723
1132.14	367.404
1133.17	368.823
1134.2	371.17
1135.23	374.37
1136.26	378.276
1137.29	382.836
1138.32	389.076
1139.35	395.053
1140.38	399.002
1141.41	402.105
1142.44	404.538
1143.47	406.07
1144.5	406.726
1145.53	406.762
1146.56	406.382
1147.58	405.599
1148.61	405.035
1149.64	405.414
1150.67	407.327
1151.69	409.762
1152.72	413.401
1153.75	423.677
1154.77	427.689
1155.8	430.035
1156.82	430.8
1157.85	430.392
1158.87	423.701
1159.9	414.642
1160.92	403.905
1161.95	389.309
1162.97	376.652
1163.99	368.911
1165.02	364.924
1166.04	362.08
1167.06	359.62
1168.08	357.923
1169.11	357.192
1170.13	357.879
1171.15	358.778
1172.17	357.665
1173.19	357.761
1174.21	358.957
1175.23	360.411
1176.25	362.495
1177.27	364.757
1178.29	367.141
1179.31	369.665
1180.33	371.942
1181.35	374.035
1182.37	375.88
1183.39	377.82
1184.4	379.074
1185.42	379.69
1186.44	379.069
1187.46	376.832
1188.47	373.421
1189.49	369.021
1190.51	363.269
1191.52	358.583
1192.54	354.402
1193.55	350.902
1194.57	347.877
1195.58	345.273
1196.6	343.305
1197.61	341.722
1198.63	340.352
1199.64	339.606
1200.65	339.071
1201.67	338.734
1202.68	338.441
1203.69	338.1
1204.7	338.032
1205.72	337.783
1206.73	337.48
1207.74	337.122
1208.75	336.833
1209.76	336.541
1210.77	336.287
1211.78	336.454
1212.79	336.68
1213.8	337.342
1214.81	337.839
1215.82	338.203
1216.83	338.564
1217.84	338.545
1218.85	338.368
1219.86	338.01
1220.87	337.644
1221.87	337.88
1222.88	337.953
1223.89	337.953
1224.9	337.067
1225.9	335.981
1226.91	334.492
1227.92	332.56
1228.92	330.252
1229.93	327.598
1230.93	324.578
1231.94	321.201
1232.94	317.501
1233.95	313.056
1234.95	309.185
1235.95	306.672
1236.96	304.734
1237.96	303.156
1238.96	301.803
1239.97	300.836
1240.97	299.881
1241.97	298.958
1242.97	297.808
1243.98	296.281
1244.98	293.806
1245.98	291.439
1246.98	289.072
1247.98	287.511
1248.98	285.395
1249.98	283.053
1250.98	281.255
1251.98	280.992
1252.98	283.61
1253.98	286.7
1254.98	288.949
1255.98	290.937
1256.97	292.733
1257.97	293.937
1258.97	289.905
1259.97	290.629
1260.97	291.354
1261.96	292.018
1262.96	292.507
1263.95	292.779
1264.95	292.815
1265.95	292.562
1266.94	292.03
1267.94	291.288
1268.93	290.42
1269.93	289.35
1270.92	288.203
1271.92	287.001
1272.91	285.802
1273.9	284.547
1274.9	283.389
1275.89	282.408
1276.88	281.613
1277.87	281.101
1278.87	281.334
1279.86	282.006
1280.85	283.06
1281.84	284.444
1282.83	285.974
1283.82	287.548
1284.81	289.522
1285.81	291.071
1286.8	292.387
1287.79	293.316
1288.77	293.321
1289.76	292.497
1290.75	291.03
1291.74	289.081
1292.73	286.707
1293.72	283.988
1294.71	280.973
1295.69	278.105
1296.68	275.344
1297.67	272.711
1298.65	270.387
1299.64	268.13
1300.63	266.622
1301.61	265.37
1302.6	264.216
1303.58	263.079
1304.57	261.969
1305.55	260.869
1306.54	259.217
1307.52	257.863
1308.51	256.437
1309.49	255.112
1310.48	253.812
1311.46	252.312
1312.44	250.302
1313.42	250.43
1314.41	252.234
1315.39	255.465
1316.37	259.627
1317.35	264.531
1318.33	269.97
1319.32	275.67
1320.3	281.761
1321.28	288.133
1322.26	292.177
1323.24	296.936
1324.22	300.15
1325.2	302.134
1326.18	301.134
1327.15	299.162
1328.13	293.555
1329.11	289.678
1330.09	283.232
1331.07	277.37
1332.05	271.035
1333.02	265.468
1334	261.549
1334.98	258.571
1335.95	256.162
1336.93	254.349
1337.91	252.933
1338.88	252.121
1339.86	251.668
1340.83	251.498
1341.81	251.844
1342.78	252.165
1343.76	251.787
1344.73	250.242
1345.7	247.869
1346.68	243.881
1347.65	241.737
1348.62	240.035
1349.6	239.253
1350.57	239.124
1351.54	238.939
1352.51	239.013
1353.49	239.043
1354.46	239.111
1355.43	239.165
1356.4	239.129
1357.37	238.929
1358.34	238.681
1359.31	238.215
1360.28	237.666
1361.25	237.094
1362.22	236.122
1363.19	235.129
1364.16	234.055
1365.12	233.074
1366.09	232.778
1367.06	232.406
1368.03	232.166
1369	232.063
1369.96	232.137
1370.93	232.241
1371.9	232.812
1372.86	233.423
1373.83	234.193
1374.79	234.254
1375.76	233.642
1376.73	233.21
1377.69	232.878
1378.66	232.49
1379.62	232.41
1380.58	232.243
1381.55	232.109
1382.51	231.985
1383.48	231.849
1384.44	231.656
1385.4	231.437
1386.36	231.189
1387.33	230.965
1388.29	230.584
1389.25	230.222
1390.21	229.678
1391.17	229.083
1392.13	228.021
1393.09	226.038
1394.06	224.469
1395.01	223.415
1395.97	222.176
1396.93	220.792
1397.89	218.863
1398.85	216.618
1399.81	214.379
1400.77	212.515
1401.73	211.938
1402.69	212.014
1403.64	212.582
1404.6	213.299
1405.56	214.062
1406.52	214.335
1407.47	214.195
1408.43	213.033
1409.39	212.835
1410.34	212.859
1411.3	212.89
1412.25	212.869
1413.21	212.712
1414.16	212.494
1415.12	211.826
1416.07	211.084
1417.03	210.308
1417.98	209.631
1418.93	209.064
1419.89	208.526
1420.84	208.684
1421.79	208.453
1422.74	208.299
1423.7	208.297
1424.65	208.369
1425.6	208.708
1426.55	209.3
1427.5	210.117
1428.45	211.029
1429.4	212.714
1430.35	214.655
1431.3	216.754
1432.25	218.591
1433.2	220.128
1434.15	221.168
1435.1	222.49
1436.05	223.994
1437	227.889
1437.95	227.958
1438.89	227.76
1439.84	227.541
1440.79	225.285
1441.74	222.664
1442.68	220.017
1443.63	217.517
1444.58	215.033
1445.52	212.677
1446.47	210.459
1447.41	208.329
1448.36	206.431
1449.3	204.803
1450.25	203.503
1451.19	202.16
1452.14	200.994
1453.08	199.47
1454.03	197.992
1454.97	196.597
1455.91	195.083
1456.85	193.889
1457.8	192.853
1458.74	192.145
1459.68	191.548
1460.62	191.104
1461.57	190.824
1462.51	190.688
1463.45	190.729
1464.39	190.598
1465.33	191.175
1466.27	191.868
1467.21	192.789
1468.15	193.478
1469.09	194.107
1470.03	194.267
1470.97	194.359
1471.9	194.578
1472.84	194.534
1473.78	194.419
1474.72	194.291
1475.66	194.027
1476.59	193.791
1477.53	193.473
1478.47	192.974
1479.4	192.412
1480.34	191.763
1481.28	191.084
1482.21	190.367
1483.15	189.446
1484.08	188.541
1485.02	187.673
1485.95	186.874
1486.89	186.272
1487.82	185.782
1488.76	186.01
1489.69	186.526
1490.62	187.081
1491.56	187.754
1492.49	188.533
1493.42	189.448
1494.35	190.244
1495.29	191.456
1496.22	192.472
1497.15	192.583
1498.08	190.504
1499.01	188.496
1499.94	186.676
1500.87	185.793
1501.8	187.883
1502.73	187.161
1503.66	186.171
1504.59	185.567
1505.52	185.807
1506.45	186.622
1507.38	188.081
1508.31	190.207
1509.23	192.939
1510.16	196.092
1511.09	199.756
1512.02	204.068
1512.94	208.651
1513.87	213.489
1514.8	218.416
1515.72	223.669
1516.65	228.416
1517.58	233.824
1518.5	239.585
1519.43	246.392
1520.35	253.539
1521.28	260.243
1522.2	265.326
1523.12	269.27
1524.05	272.906
1524.97	274.808
1525.9	274.435
1526.82	271.958
1527.74	267.577
1528.66	260.489
1529.59	255.832
1530.51	251.512
1531.43	247.507
1532.35	242.232
1533.27	236.983
1534.19	231.844
1535.11	226.798
1536.04	222.005
1536.96	217.735
1537.88	213.428
1538.8	209.095
1539.71	205.135
1540.63	201.67
1541.55	198.178
1542.47	195.09
1543.39	192.365
1544.31	190.059
1545.23	188.321
1546.14	186.976
1547.06	186.919
1547.98	186.925
1548.89	187.249
1549.81	187.7
1550.73	187.831
1551.64	188.075
1552.56	188.762
1553.47	188.165
1554.39	187.097
1555.31	185.111
1556.22	182.746
1557.13	180.038
1558.05	177.279
1558.96	175.102
1559.88	172.964
1560.79	170.889
1561.7	168.889
1562.62	166.962
1563.53	165.21
1564.44	163.644
1565.35	162.079
1566.27	160.759
1567.18	159.614
1568.09	158.562
1569	157.652
1569.91	156.785
1570.82	156.069
1571.73	155.491
1572.64	155.025
1573.55	154.586
1574.46	154.241
1575.37	153.805
1576.28	153.293
1577.19	152.63
1578.1	151.805
1579	150.972
1579.91	150.183
1580.82	149.494
1581.73	148.874
1582.63	148.423
1583.54	148.214
1584.45	148.109
1585.35	148.118
1586.26	148.041
1587.17	147.602
1588.07	147.239
1588.98	146.749
1589.88	146.114
1590.79	145.484
1591.69	145.026
1592.6	144.759
1593.5	144.638
1594.4	144.559
1595.31	144.72
1596.21	144.956
1597.11	145.398
1598.02	145.962
1598.92	146.673
1599.82	147.435
1600.72	148.292
1601.63	149.188
1602.53	150.112
1603.43	151.016
1604.33	151.831
1605.23	152.572
1606.13	153.012
1607.03	153.376
1607.93	153.565
1608.83	153.594
1609.73	153.562
1610.63	153.365
1611.53	152.698
1612.43	151.678
1613.32	150.525
1614.22	149.292
1615.12	147.972
1616.02	146.677
1616.92	145.382
1617.81	144.049
1618.71	142.638
1619.61	141.346
1620.5	140.36
1621.4	139.789
1622.29	139.462
1623.19	139.371
1624.08	139.409
1624.98	139.638
1625.87	140.171
1626.77	141.031
1627.66	141.903
1628.56	142.321
1629.45	142.224
1630.34	141.997
1631.24	141.726
1632.13	141.409
1632.84	141.07
1633.77	140.669
1634.7	140.191
1635.63	139.777
1636.56	139.317
1637.49	138.89
1638.42	138.458
1639.34	138.084
1640.27	137.753
1641.2	137.247
1642.13	136.769
1643.05	136.293
1643.98	135.81
1644.91	135.384
1645.83	134.948
1646.76	134.559
1647.68	134.1
1648.61	133.927
1649.54	133.898
1650.46	134.237
1651.39	134.402
1652.31	134.644
1653.23	134.881
1654.16	135.05
1655.08	135.218
1656.01	135.298
1656.93	135.389
1657.85	135.121
1658.78	134.892
1659.7	134.67
1660.62	134.341
1661.54	134.001
1662.47	133.6
1663.39	133.091
1664.31	132.584
1665.23	131.989
1666.15	131.387
1667.07	130.797
1667.99	130.207
1668.92	129.731
1669.84	129.42
1670.76	129.524
1671.68	129.617
1672.6	129.702
1673.52	129.97
1674.43	132.524
1675.35	132.692
1676.27	131.74
1677.19	130.788
1678.11	129.683
1679.03	128.699
1679.95	127.958
1680.86	127.425
1681.78	127.067
1682.7	126.816
1683.61	126.739
1684.53	126.848
1685.45	127.418
1686.36	128.256
1687.28	129.44
1688.2	130.126
1689.11	130.209
1690.03	130.188
1690.94	129.862
1691.86	129.368
1692.77	128.814
1693.69	128.706
1694.6	128.296
1695.52	128.645
1696.43	128.5
1697.34	127.419
1698.26	126.142
1699.17	124.434
1700.08	122.628
1700.99	121.238
1701.91	120.156
1702.82	119.247
1703.73	118.549
1704.64	118.016
1705.55	117.692
1706.47	117.332
1707.38	117.246
1708.29	117.519
1709.2	117.861
1710.11	117.719
1711.02	118.07
1711.93	118.481
1712.84	118.604
1713.75	119.29
1714.66	118.951
1715.57	118.903
1716.48	118.499
1717.39	119.184
1718.29	119.388
1719.2	119.427
1720.11	119.594
1721.02	119.637
1721.93	119.184
1722.83	118.873
1723.74	118.21
1724.65	117.227
1725.55	115.957
1726.46	115.211
1727.37	114.592
1728.27	114.069
1729.18	113.797
1730.08	114.005
1730.99	114.143
1731.89	114.438
1732.8	115.02
1733.7	115.112
1734.61	115.317
1735.51	115.497
1736.42	115.627
1737.32	115.663
1738.22	114.738
1739.13	113.879
1740.03	112.413
1740.93	111.655
1741.83	111.013
1742.74	110.456
1743.64	109.921
1744.54	109.553
1745.44	109.203
1746.34	108.882
1747.24	108.322
1748.15	107.696
1749.05	107.048
1749.95	107.07
1750.85	107.353
1751.75	107.698
1752.65	107.708
1753.55	107.347
1754.45	108.072
1755.35	110.058
1756.25	111.626
1757.14	111.071
1758.04	110.397
1758.94	110.227
1759.84	109.955
1760.74	109.393
1761.63	108.669
1762.53	108.381
1763.43	107.9
1764.33	107.667
1765.22	107.527
1766.12	107.696
1767.02	107.747
1767.91	107.929
1768.81	108.338
1769.7	108.97
1770.6	109.051
1771.49	109.235
1772.39	109.566
1773.28	109.887
1774.18	109.673
1775.07	109.155
1775.97	108.482
1776.86	108.031
1777.75	107.688
1778.65	107.422
1779.54	106.676
1780.43	106.551
1781.33	106.812
1782.22	106.188
1783.11	105.465
1784	104.83
1784.89	104.123
1785.79	103.555
1786.68	103.011
1787.57	102.398
1788.46	101.685
1789.35	101.375
1790.24	100.65
1791.13	99.5181
1792.02	98.6201
1792.91	101.614
1793.8	101.82
1794.69	102.177
1795.58	102.648
1796.47	103.199
1797.36	104.121
1798.25	105.473
1799.13	108.092
