Acq. time (s)=	15
Accumulations=	2
Range (cm-¹)=	600...1800
Windows=	2
Autofocus=	Off
AutoExposure=	On
Spike filter=	Multiple accum.
Delay time (s)=	1
Binning=	1
Readout mode=	Signal
DeNoise=	Standard
ICS correction=	Off
Dark correction=	Off
Inst. Process=	Off
Instrument=	XploRA
Detector=	Syncerity
Objective=	x20LWD
Grating=	1200 gr/mm
Filter=	25%
Laser (nm)=	785 
Slit (µm)=	100 
Hole (µm)=	300 
Laser pol=	None
Raman pol=	None
Output=	Camera
StageXY=	Marzhauser
StageZ=	
X (µm)=	283.9
Y (µm)=	-3266.2
Project=	
Sample=	
Site=	
Title=	To8-T
Remark=	
Date=	14.10.2022 23:22
Acquired=	14.10.2022 23:22:17
600.787	388.645
601.956	390.465
603.126	392.349
604.294	394.234
605.463	396.432
606.631	398.617
607.8	400.731
608.967	402.836
610.135	404.917
611.302	406.917
612.468	408.752
613.635	410.325
614.802	411.613
615.968	412.8
617.133	413.413
618.299	414.272
619.464	415.86
620.629	417.871
621.793	420.12
622.958	422.04
624.121	423.822
625.285	427.324
626.448	429.046
627.612	430.229
628.774	431.795
629.937	432.875
631.099	433.393
632.261	433.288
633.423	432.513
634.584	431.5
635.745	430.679
636.906	430.475
638.066	430.673
639.227	431.655
640.386	432.851
641.546	434.661
642.705	437.213
643.864	441.328
645.023	444.254
646.181	446.451
647.339	447.836
648.497	448.586
649.655	448.478
650.812	447.179
651.969	445.496
653.125	445.212
654.282	444.587
655.438	443.583
656.593	442.717
657.75	442.314
658.905	442.145
660.059	442.944
661.214	443.992
662.368	445.146
663.522	446.121
664.676	446.889
665.83	447.81
666.983	448.839
668.136	449.911
669.288	451.244
670.441	452.652
671.592	454.172
672.744	454.739
673.895	455.293
675.046	455.981
676.197	457.195
677.348	458.415
678.498	460.885
679.648	463.507
680.798	465.821
681.947	467.579
683.096	468.94
684.245	470.038
685.394	470.757
686.542	471.178
687.69	471.224
688.837	470.966
689.984	470.467
691.132	469.664
692.278	468.665
693.425	467.362
694.571	465.796
695.717	463.904
696.863	461.943
698.008	459.89
699.152	458.941
700.298	458.451
701.442	458.406
702.586	458.671
703.73	459.211
704.873	459.787
706.017	460.548
707.16	461.808
708.302	463.127
709.445	464.438
710.586	465.374
711.729	465.507
712.87	465.963
714.012	466.277
715.152	466.264
716.293	465.757
717.433	463.983
718.573	462.165
719.713	460.416
720.853	459.211
721.991	458.457
723.131	457.809
724.269	457.391
725.408	456.623
726.545	455.484
727.683	454.528
728.821	454.396
729.958	454.65
731.095	455.438
732.231	456.992
733.368	458.582
734.503	460.199
735.639	461.372
736.775	462.479
737.91	463.3
739.045	463.856
740.179	464.223
741.313	464.437
742.447	464.326
743.581	463.818
744.714	462.796
745.847	460.068
746.98	457.089
748.113	454.116
749.245	451.984
750.377	450.103
751.509	448.924
752.64	447.97
753.771	446.993
754.902	446.062
756.033	444.695
757.163	443.419
758.293	442.014
759.423	440.638
760.551	439.223
761.681	437.766
762.81	436.328
763.938	434.838
765.066	433.516
766.194	432.247
767.321	431.075
768.449	429.376
769.576	426.408
770.703	424.467
771.83	422.631
772.955	420.958
774.081	419.268
775.207	416.694
776.332	414.625
777.457	413.622
778.582	412.828
779.707	412.215
780.831	411.886
781.954	411.636
783.078	411.343
784.201	411.132
785.324	410.841
786.447	410.38
787.569	409.718
788.691	408.81
789.813	407.564
790.935	405.998
792.056	404.538
793.177	403.327
794.297	402.115
795.418	400.717
796.539	398.364
797.658	396.584
798.777	395.492
799.897	394.545
801.016	393.874
802.134	392.7
803.253	391.518
804.371	390.284
805.489	389.126
806.606	388.062
807.723	387.142
808.84	386.682
809.957	386.252
811.073	386.003
812.19	385.872
813.305	385.81
814.421	386.034
815.536	386.365
816.651	386.856
817.766	387.446
818.88	388.041
819.994	388.509
821.108	388.745
822.221	388.73
823.335	388.453
824.448	387.487
825.56	386.334
826.673	384.944
827.784	384.148
828.897	383.594
830.008	383.09
831.119	382.602
832.23	382.012
833.341	380.806
834.451	379.241
835.561	377.496
836.671	375.539
837.78	373.664
838.89	372.134
839.998	370.561
841.108	369.248
842.216	368.344
843.324	367.779
844.431	367.899
845.539	368.947
846.646	370.038
847.753	371.45
848.859	372.93
849.966	375.802
851.071	376.715
852.178	376.385
853.283	375.229
854.388	373.8
855.494	371.225
856.598	368.429
857.703	366.032
858.806	364.285
859.91	362.996
861.014	362.075
862.116	361.364
863.22	361.055
864.322	360.982
865.425	361.388
866.527	362.399
867.628	363.371
868.73	363.649
869.831	362.195
870.932	360.141
872.032	358.263
873.133	356.609
874.233	355.011
875.333	353.308
876.432	351.715
877.532	350.281
878.631	348.023
879.729	345.638
880.828	344.225
881.926	343.677
883.023	344.222
884.121	345.103
885.218	345.134
886.315	345.122
887.412	345.31
888.508	345.371
889.604	343.639
890.699	342.748
891.795	342.217
892.89	341.773
893.985	341.45
895.08	341.228
896.174	341.037
897.268	340.921
898.362	340.774
899.456	340.64
900.549	340.647
901.642	340.689
902.734	340.805
903.827	341.005
904.919	341.173
906.011	341.401
907.102	341.655
908.193	341.925
909.284	342.187
910.375	342.315
911.465	341.563
912.555	339.999
913.645	338.096
914.734	335.905
915.824	334.309
916.913	333.031
918.001	331.611
919.09	330.574
920.177	330.144
921.266	330.307
922.353	330.893
923.44	331.527
924.527	332.11
925.614	332.602
926.7	333.117
927.786	333.397
928.873	331.566
929.958	329.705
931.043	327.877
932.128	326.235
933.213	324.743
934.297	323.43
935.381	322.202
936.465	321.076
937.549	319.523
938.632	317.373
939.715	315.633
940.798	313.971
941.881	312.543
942.962	311.197
944.044	309.971
945.125	308.899
946.207	307.744
947.288	306.671
948.368	305.21
949.449	304.479
950.529	304.388
951.61	303.992
952.689	303.199
953.769	302.364
954.847	301.404
955.926	300.31
957.004	299.182
958.082	298.301
959.16	297.712
960.238	297.529
961.316	298.152
962.392	299.607
963.469	301.143
964.546	302.542
965.622	303.135
966.698	302.885
967.774	302.579
968.849	302.282
969.924	302.016
970.998	302.061
972.073	302.237
973.148	302.523
974.221	302.937
975.295	303.527
976.369	304.307
977.441	305.255
978.514	306.332
979.587	307.525
980.659	308.835
981.731	310.25
982.802	310.725
983.874	311.257
984.945	311.466
986.016	310.418
987.087	309.232
988.157	308.276
989.227	307.691
990.296	308.36
991.366	308.429
992.435	307.506
993.504	306.705
994.573	306.113
995.641	305.685
996.709	305.372
997.777	305.337
998.844	305.458
999.911	305.806
1000.98	306.643
1002.05	307.478
1003.11	308.199
1004.18	307.141
1005.24	305.103
1006.31	302.722
1007.37	300.934
1008.44	297.756
1009.5	294.273
1010.57	290.756
1011.63	287.665
1012.7	284.877
1013.76	282.338
1014.82	280.082
1015.89	277.991
1016.95	276.249
1018.01	274.87
1019.07	273.892
1020.13	273.388
1021.2	274.135
1022.26	274.427
1023.32	276.112
1024.38	275.345
1025.44	274.957
1026.5	273.936
1027.56	272.954
1028.62	273.179
1029.68	273.542
1030.74	273.332
1031.8	271.9
1032.85	270.906
1033.91	270.166
1034.97	269.826
1036.03	269.996
1037.09	273.589
1038.14	273.23
1039.2	273.118
1040.26	272.816
1041.31	272.436
1042.37	271.779
1043.42	271.051
1044.48	270.045
1045.53	268.932
1046.59	267.775
1047.64	266.206
1048.7	264.63
1049.75	263.011
1050.81	261.552
1051.86	260.222
1052.91	259.389
1053.97	258.703
1055.02	258.31
1056.07	258.036
1057.12	257.925
1058.17	257.969
1059.23	258.096
1060.28	258.259
1061.33	258.553
1062.38	258.705
1063.43	258.991
1064.48	259.359
1065.53	259.685
1066.58	259.816
1067.63	259.918
1068.68	259.964
1069.72	260.83
1070.77	261.631
1071.82	260.011
1072.87	258.417
1073.92	257.182
1074.96	256.628
1076.01	256.183
1077.06	255.978
1078.1	255.947
1079.15	255.922
1080.2	256.122
1081.24	256.296
1082.29	256.226
1083.33	253.995
1084.38	251.334
1085.42	248.898
1086.47	246.893
1087.51	245.033
1088.55	244.159
1089.6	243.748
1090.64	243.616
1091.68	243.701
1092.73	243.983
1093.77	244.242
1094.81	244.402
1095.85	244.803
1096.89	245.137
1097.93	245.575
1098.98	246.023
1100.02	246.47
1101.06	246.918
1102.1	247.258
1103.14	247.2
1104.18	247.373
1105.21	247.82
1106.25	248.067
1107.29	248.144
1108.33	248.062
1109.37	247.898
1110.41	247.843
1111.44	247.463
1112.48	246.828
1113.52	245.022
1114.56	243.128
1115.59	241.914
1116.63	240.875
1117.66	240.16
1118.7	239.751
1119.73	238.803
1120.77	238.018
1121.8	237.463
1122.84	235.967
1123.87	234.815
1124.91	233.926
1125.94	233.3
1126.97	232.951
1128.01	232.886
1129.04	233.099
1130.07	233.581
1131.11	234.326
1132.14	235.341
1133.17	236.621
1134.2	238.13
1135.23	239.893
1136.26	241.83
1137.29	243.93
1138.32	246.3
1139.35	248.404
1140.38	249.263
1141.41	250.427
1142.44	251.557
1143.47	252.933
1144.5	254.216
1145.53	255.494
1146.56	256.8
1147.58	258.096
1148.61	259.425
1149.64	260.89
1150.67	262.522
1151.69	264.629
1152.72	266.257
1153.75	267.84
1154.77	267.826
1155.8	267.647
1156.82	266.053
1157.85	265.276
1158.87	262.038
1159.9	258.241
1160.92	255.778
1161.95	250.049
1162.97	244.599
1163.99	239.495
1165.02	234.587
1166.04	230.882
1167.06	228.274
1168.08	226.32
1169.11	224.841
1170.13	224.214
1171.15	224.626
1172.17	225.541
1173.19	226.222
1174.21	227.2
1175.23	228.382
1176.25	229.496
1177.27	230.642
1178.29	231.852
1179.31	232.833
1180.33	233.726
1181.35	234.565
1182.37	235.683
1183.39	236.938
1184.4	237.951
1185.42	237.397
1186.44	236.759
1187.46	236.04
1188.47	235.275
1189.49	234.476
1190.51	233.631
1191.52	232.753
1192.54	231.057
1193.55	228.374
1194.57	226.462
1195.58	224.607
1196.6	222.355
1197.61	219.866
1198.63	217.372
1199.64	215.029
1200.65	213.426
1201.67	212.315
1202.68	212.693
1203.69	213.358
1204.7	214.318
1205.72	215.543
1206.73	217.084
1207.74	218.996
1208.75	221.208
1209.76	223.027
1210.77	222.983
1211.78	222.41
1212.79	221.933
1213.8	220.712
1214.81	219.489
1215.82	218.215
1216.83	217.031
1217.84	215.979
1218.85	215.1
1219.86	214.558
1220.87	214.069
1221.87	213.759
1222.88	214.13
1223.89	214.572
1224.9	214.934
1225.9	215.23
1226.91	215.399
1227.92	214.692
1228.92	213.803
1229.93	212.579
1230.93	211.401
1231.94	209.952
1232.94	207.805
1233.95	205.496
1234.95	203.09
1235.95	200.708
1236.96	199.044
1237.96	197.946
1238.96	197.175
1239.97	196.468
1240.97	195.861
1241.97	194.99
1242.97	194.307
1243.98	193.713
1244.98	192.307
1245.98	189.886
1246.98	188.627
1247.98	188.027
1248.98	188.192
1249.98	188.552
1250.98	187.972
1251.98	186.932
1252.98	186.02
1253.98	185.62
1254.98	186.157
1255.98	186.774
1256.97	187.565
1257.97	188.484
1258.97	189.718
1259.97	190.791
1260.97	190.477
1261.96	190.163
1262.96	189.617
1263.95	188.975
1264.95	188.243
1265.95	187.289
1266.94	186.407
1267.94	185.506
1268.93	184.585
1269.93	183.974
1270.92	183.345
1271.92	183.208
1272.91	183.45
1273.9	184.378
1274.9	184.916
1275.89	185.695
1276.88	186.696
1277.87	187.117
1278.87	187.008
1279.86	187.201
1280.85	187.778
1281.84	189.152
1282.83	191.161
1283.82	193.208
1284.81	194.832
1285.81	196.016
1286.8	196.785
1287.79	196.911
1288.77	194.999
1289.76	192.112
1290.75	188.205
1291.74	180.119
1292.73	178.36
1293.72	177.062
1294.71	175.971
1295.69	174.966
1296.68	176.602
1297.67	176.625
1298.65	176.887
1299.64	175.855
1300.63	175.348
1301.61	175.293
1302.6	175.785
1303.58	176.511
1304.57	177.369
1305.55	178.302
1306.54	178.517
1307.52	178.424
1308.51	178.086
1309.49	177.531
1310.48	176.546
1311.46	174.698
1312.44	173.338
1313.42	171.991
1314.41	170.811
1315.39	170.451
1316.37	170.35
1317.35	169.04
1318.33	171.427
1319.32	173.975
1320.3	177.314
1321.28	181.005
1322.26	185.788
1323.24	190.347
1324.22	193.55
1325.2	196.17
1326.18	197.556
1327.15	197.982
1328.13	197.389
1329.11	195.837
1330.09	193.28
1331.07	189.597
1332.05	185.026
1333.02	180.246
1334	175.719
1334.98	171.532
1335.95	168.289
1336.93	164.843
1337.91	165.643
1338.88	164.081
1339.86	162.611
1340.83	161.663
1341.81	161.251
1342.78	161.681
1343.76	162.702
1344.73	164.179
1345.7	165.816
1346.68	166.691
1347.65	166.582
1348.62	166.254
1349.6	165.903
1350.57	165.563
1351.54	165.224
1352.51	164.824
1353.49	164.411
1354.46	163.816
1355.43	163.058
1356.4	162.247
1357.37	161.187
1358.34	160.089
1359.31	159.131
1360.28	158.163
1361.25	157.352
1362.22	157.236
1363.19	157.047
1364.16	156.958
1365.12	157.013
1366.09	157.004
1367.06	156.826
1368.03	156.851
1369	156.95
1369.96	157.128
1370.93	157.344
1371.9	157.58
1372.86	157.809
1373.83	158.08
1374.79	157.78
1375.76	156.883
1376.73	155.691
1377.69	154.665
1378.66	153.863
1379.62	153.386
1380.58	152.949
1381.55	152.488
1382.51	152.058
1383.48	151.759
1384.44	151.674
1385.4	151.759
1386.36	152.27
1387.33	153.291
1388.29	154.165
1389.25	154.254
1390.21	153.892
1391.17	153.357
1392.13	152.729
1393.09	151.816
1394.06	150.745
1395.01	149.769
1395.97	148.888
1396.93	148.134
1397.89	147.541
1398.85	147.104
1399.81	146.751
1400.77	146.341
1401.73	146.134
1402.69	145.897
1403.64	145.749
1404.6	145.624
1405.56	145.503
1406.52	145.394
1407.47	145.247
1408.43	145.071
1409.39	144.853
1410.34	144.564
1411.3	143.971
1412.25	142.752
1413.21	141.387
1414.16	139.36
1415.12	138.177
1416.07	137.283
1417.03	136.459
1417.98	135.764
1418.93	136.23
1419.89	136.984
1420.84	137.549
1421.79	138.262
1422.74	138.712
1423.7	138.437
1424.65	138.615
1425.6	139.062
1426.55	139.91
1427.5	141.09
1428.45	142.704
1429.4	143.43
1430.35	144.075
1431.3	144.747
1432.25	145.45
1433.2	146.16
1434.15	146.909
1435.1	147.649
1436.05	148.47
1437	149.3
1437.95	150.256
1438.89	150.846
1439.84	149.826
1440.79	148.537
1441.74	147.148
1442.68	146.461
1443.63	145.787
1444.58	145.434
1445.52	145.391
1446.47	145.639
1447.41	146.038
1448.36	145.441
1449.3	143.405
1450.25	141.09
1451.19	139.885
1452.14	138.38
1453.08	137.105
1454.03	136.045
1454.97	135.284
1455.91	134.862
1456.85	134.754
1457.8	134.624
1458.74	133.349
1459.68	132.104
1460.62	131.096
1461.57	130.242
1462.51	129.696
1463.45	129.436
1464.39	129.48
1465.33	129.8
1466.27	130.337
1467.21	131.149
1468.15	132.03
1469.09	132.984
1470.03	133.42
1470.97	132.964
1471.9	132.492
1472.84	132.057
1473.78	130.67
1474.72	131.167
1475.66	131.421
1476.59	131.411
1477.53	131.399
1478.47	131.167
1479.4	130.602
1480.34	130.101
1481.28	129.694
1482.21	129.344
1483.15	129.056
1484.08	128.815
1485.02	128.646
1485.95	128.474
1486.89	128.481
1487.82	128.443
1488.76	128.517
1489.69	128.753
1490.62	129.068
1491.56	129.385
1492.49	129.212
1493.42	128.999
1494.35	128.957
1495.29	129.34
1496.22	129.853
1497.15	130.385
1498.08	130.621
1499.01	130.503
1499.94	130.197
1500.87	129.585
1501.8	128.857
1502.73	128.144
1503.66	127.715
1504.59	127.4
1505.52	127.247
1506.45	127.259
1507.38	127.573
1508.31	128.024
1509.23	128.598
1510.16	129.323
1511.09	129.806
1512.02	130.992
1512.94	133.326
1513.87	136.408
1514.8	139.662
1515.72	142.892
1516.65	146.164
1517.58	149.366
1518.5	152.3
1519.43	155.053
1520.35	157.751
1521.28	160.233
1522.2	162.797
1523.12	165.522
1524.05	169.784
1524.97	172.462
1525.9	173.634
1526.82	172.767
1527.74	170.853
1528.66	165.558
1529.59	162.864
1530.51	159.876
1531.43	157.203
1532.35	154.036
1533.27	151.733
1534.19	148.467
1535.11	145.111
1536.04	142.367
1536.96	140.91
1537.88	138.043
1538.8	135.609
1539.71	133.701
1540.63	131.8
1541.55	130.134
1542.47	128.786
1543.39	128.063
1544.31	127.928
1545.23	127.74
1546.14	127.689
1547.06	127.876
1547.98	127.848
1548.89	126.947
1549.81	126.136
1550.73	125.369
1551.64	124.63
1552.56	123.853
1553.47	122.479
1554.39	121.352
1555.31	119.706
1556.22	118.07
1557.13	116.511
1558.05	115.254
1558.96	114.05
1559.88	112.931
1560.79	111.889
1561.7	110.953
1562.62	110.136
1563.53	109.423
1564.44	109.078
1565.35	108.786
1566.27	108.582
1567.18	108.464
1568.09	108.291
1569	107.806
1569.91	107.151
1570.82	106.272
1571.73	105.333
1572.64	105.387
1573.55	105.232
1574.46	105.76
1575.37	106.104
1576.28	106.052
1577.19	105.805
1578.1	105.559
1579	105.376
1579.91	105.258
1580.82	105.181
1581.73	104.791
1582.63	104.375
1583.54	104.614
1584.45	103.703
1585.35	102.789
1586.26	101.991
1587.17	101.491
1588.07	101.094
1588.98	101.104
1589.88	101.225
1590.79	100.986
1591.69	100.611
1592.6	100.124
1593.5	99.8557
1594.4	99.9422
1595.31	100.563
1596.21	101.332
1597.11	102.355
1598.02	103.43
1598.92	103.805
1599.82	104.009
1600.72	104.321
1601.63	104.849
1602.53	105.496
1603.43	106.075
1604.33	106.193
1605.23	106.167
1606.13	106.078
1607.03	105.962
1607.93	105.639
1608.83	105.283
1609.73	104.928
1610.63	104.614
1611.53	104.073
1612.43	103.445
1613.32	102.833
1614.22	102.385
1615.12	101.729
1616.02	101.051
1616.92	100.365
1617.81	99.6096
1618.71	99.4061
1619.61	99.4716
1620.5	99.7097
1621.4	99.9916
1622.29	100.31
1623.19	100.158
1624.08	99.8976
1624.98	99.7481
1625.87	99.5398
1626.77	99.3505
1627.66	99.298
1628.56	99.2247
1629.45	99.2549
1630.34	99.2901
1631.24	99.4731
1632.13	99.857
1632.84	99.8656
1633.77	99.681
1634.7	99.4821
1635.63	99.5379
1636.56	99.6768
1637.49	98.8381
1638.42	97.8875
1639.34	96.995
1640.27	96.2003
1641.2	95.6355
1642.13	95.2535
1643.05	95.2282
1643.98	95.7053
1644.91	96.4877
1645.83	96.8724
1646.76	97.0425
1647.68	96.6909
1648.61	96.3961
1649.54	96.4078
1650.46	96.6467
1651.39	98.5305
1652.31	98.3955
1653.23	98.0962
1654.16	97.7126
1655.08	97.3046
1656.01	96.8609
1656.93	96.4588
1657.85	96.1067
1658.78	95.7567
1659.7	94.4884
1660.62	93.3417
1661.54	92.3769
1662.47	92.1522
1663.39	91.9914
1664.31	92.0382
1665.23	92.2927
1666.15	92.6144
1667.07	93.2482
1667.99	93.2154
1668.92	93.032
1669.84	92.8855
1670.76	92.7797
1671.68	92.7622
1672.6	92.6681
1673.52	92.5811
1674.43	92.48
1675.35	92.3546
1676.27	92.1841
1677.19	91.7514
1678.11	91.3728
1679.03	91.2161
1679.95	89.991
1680.86	88.764
1681.78	87.6668
1682.7	87.585
1683.61	87.4809
1684.53	87.9274
1685.45	88.6928
1686.36	89.2111
1687.28	89.5233
1688.2	90.2057
1689.11	90.943
1690.03	91.6537
1690.94	91.8702
1691.86	91.5431
1692.77	91.124
1693.69	90.4618
1694.6	89.5603
1695.52	88.4038
1696.43	85.9251
1697.34	83.4701
1698.26	82.7284
1699.17	84.6759
1700.08	84.0292
1700.99	83.4813
1701.91	83.0906
1702.82	82.855
1703.73	82.7351
1704.64	82.7686
1705.55	82.9638
1706.47	83.2966
1707.38	83.7914
1708.29	84.3781
1709.2	84.9354
1710.11	85.09
1711.02	85.2154
1711.93	85.2248
1712.84	85.1705
1713.75	85.2243
1714.66	85.136
1715.57	84.8454
1716.48	84.5919
1717.39	84.3746
1718.29	84.2354
1719.2	84.1042
1720.11	84.0336
1721.02	83.925
1721.93	83.7841
1722.83	83.5752
1723.74	83.3731
1724.65	83.134
1725.55	82.8449
1726.46	82.4101
1727.37	82.0129
1728.27	81.6551
1729.18	81.3293
1730.08	81.0385
1730.99	80.7945
1731.89	80.6028
1732.8	80.4522
1733.7	80.6489
1734.61	80.8195
1735.51	81.1288
1736.42	81.5167
1737.32	81.6485
1738.22	81.391
1739.13	81.0991
1740.03	80.7112
1740.93	80.3286
1741.83	79.8305
1742.74	79.2653
1743.64	78.6397
1744.54	77.8833
1745.44	77.1622
1746.34	77.5258
1747.24	77.9005
1748.15	77.9362
1749.05	77.7486
1749.95	78.1856
1750.85	78.5368
1751.75	78.8213
1752.65	79.3327
1753.55	79.8891
1754.45	80.4309
1755.35	80.966
1756.25	80.9193
1757.14	80.4743
1758.04	79.8772
1758.94	79.2355
1759.84	78.5701
1760.74	77.8195
1761.63	76.9421
1762.53	76.7316
1763.43	77.2407
1764.33	77.8559
1765.22	77.7464
1766.12	76.9124
1767.02	76.3267
1767.91	75.7396
1768.81	75.5403
1769.7	75.4857
1770.6	75.4327
1771.49	75.4298
1772.39	75.4567
1773.28	75.5336
1774.18	75.6082
1775.07	75.7401
1775.97	75.8205
1776.86	75.9608
1777.75	76.0358
1778.65	76.1699
1779.54	76.2387
1780.43	76.1916
1781.33	76.1263
1782.22	76.2266
1783.11	76.3019
1784	76.4218
1784.89	76.5985
1785.79	76.8265
1786.68	77.0524
1787.57	77.2681
1788.46	77.504
1789.35	77.004
1790.24	76.6035
1791.13	76.1032
1792.02	75.5879
1792.91	75.0351
1793.8	74.4414
1794.69	73.8247
1795.58	73.1558
1796.47	72.4711
1797.36	71.5621
1798.25	69.1415
1799.13	66.831
