Acq. time (s)=	15
Accumulations=	2
Range (cm-¹)=	600...1800
Windows=	2
Autofocus=	Off
AutoExposure=	On
Spike filter=	Multiple accum.
Delay time (s)=	1
Binning=	1
Readout mode=	Signal
DeNoise=	Standard
ICS correction=	Off
Dark correction=	Off
Inst. Process=	Off
Instrument=	XploRA
Detector=	Syncerity
Objective=	x20LWD
Grating=	1200 gr/mm
Filter=	25%
Laser (nm)=	785 
Slit (µm)=	100 
Hole (µm)=	300 
Laser pol=	None
Raman pol=	None
Output=	Camera
StageXY=	Marzhauser
StageZ=	
X (µm)=	-4898.5
Y (µm)=	-2232.9
Project=	
Sample=	
Site=	
Title=	To1-T
Remark=	
Date=	14.10.2022 18:32
Acquired=	14.10.2022 18:32:24
600.787	934.445
601.956	960.11
603.126	981.724
604.294	993.839
605.463	1001.36
606.631	1005.47
607.8	1014
608.967	1018.79
610.135	1028.12
611.302	1040.49
612.468	1042.94
613.635	1045.01
614.802	1045.19
615.968	1042.07
617.133	1038.78
618.299	1038.47
619.464	1051.38
620.629	1056.54
621.793	1062.21
622.958	1066.17
624.121	1067.72
625.285	1069.66
626.448	1067.52
627.612	1068.5
628.774	1068.51
629.937	1069.21
631.099	1070.09
632.261	1070.96
633.423	1070.72
634.584	1070.7
635.745	1071.06
636.906	1071.32
638.066	1071.48
639.227	1071.57
640.386	1071.62
641.546	1073.64
642.705	1072.71
643.864	1071.07
645.023	1069.12
646.181	1067.46
647.339	1065.45
648.497	1063.53
649.655	1061.82
650.812	1060.45
651.969	1059.7
653.125	1059.37
654.282	1058.94
655.438	1058.39
656.593	1056.48
657.75	1054.21
658.905	1052.68
660.059	1051.17
661.214	1049.55
662.368	1047.95
663.522	1046.21
664.676	1044.6
665.83	1042.51
666.983	1042.05
668.136	1043.31
669.288	1044.93
670.441	1045.52
671.592	1045.79
672.744	1046.16
673.895	1046.75
675.046	1048.45
676.197	1050.12
677.348	1051.8
678.498	1053.02
679.648	1055.11
680.798	1057.21
681.947	1059.02
683.096	1060.33
684.245	1061.53
685.394	1062.34
686.542	1062.96
687.69	1063.19
688.837	1063.79
689.984	1064.12
691.132	1064.27
692.278	1063.42
693.425	1061.95
694.571	1059.36
695.717	1056.54
696.863	1053.66
698.008	1051.36
699.152	1048.97
700.298	1046.71
701.442	1044.16
702.586	1042.16
703.73	1040.28
704.873	1038.47
706.017	1036.81
707.16	1035.02
708.302	1032.96
709.445	1030.95
710.586	1028.89
711.729	1026.85
712.87	1024.72
714.012	1022.54
715.152	1020.4
716.293	1018.26
717.433	1016.2
718.573	1014.28
719.713	1012.49
720.853	1010.79
721.991	1009.19
723.131	1007.95
724.269	1007.3
725.408	1006.92
726.545	1007.06
727.683	1007.46
728.821	1006.92
729.958	1008
731.095	1010.17
732.231	1013.84
733.368	1019.08
734.503	1025.16
735.639	1029.07
736.775	1030.9
737.91	1044.1
739.045	1057.2
740.179	1068.68
741.313	1073.05
742.447	1075.11
743.581	1074.59
744.714	1070.85
745.847	1056.45
746.98	1049.78
748.113	1042
749.245	1036.07
750.377	1030.92
751.509	1025.95
752.64	1020.79
753.771	1014.54
754.902	1008.16
756.033	1002
757.163	996.498
758.293	991.347
759.423	986.728
760.551	982.455
761.681	978.785
762.81	976.128
763.938	974.542
765.066	971.336
766.194	969.464
767.321	966.606
768.449	963.003
769.576	959.33
770.703	955.753
771.83	952.118
772.955	948.787
774.081	945.844
775.207	943.126
776.332	940.51
777.457	938.013
778.582	935.54
779.707	933.044
780.831	930.513
781.954	927.812
783.078	923.481
784.201	920.26
785.324	917.337
786.447	914.518
787.569	910.666
788.691	907.974
789.813	906.12
790.935	904.228
792.056	902.11
793.177	899.74
794.297	897.29
795.418	894.626
796.539	891.733
797.658	888.556
798.777	885.089
799.897	881.229
801.016	877.188
802.134	873.262
803.253	870.059
804.371	866.945
805.489	864.114
806.606	861.805
807.723	859.855
808.84	858.286
809.957	857.574
811.073	857.541
812.19	858.218
813.305	859.118
814.421	859.77
815.536	860.698
816.651	861.626
817.766	862.554
818.88	864.26
819.994	865.651
821.108	866.342
822.221	866.763
823.335	866.618
824.448	866.384
825.56	865.715
826.673	864.474
827.784	862.823
828.897	860.642
830.008	857.822
831.119	854.871
832.23	852.382
833.341	849.77
834.451	846.38
835.561	843.14
836.671	836.982
837.78	836.004
838.89	837.33
839.998	838.112
841.108	838.352
842.216	838.08
843.324	837.384
844.431	836.084
845.539	834.109
846.646	831.77
847.753	828.956
848.859	825.413
849.966	821.409
851.071	817.557
852.178	815.162
853.283	813.808
854.388	811.846
855.494	810.076
856.598	808.511
857.703	807.299
858.806	806.617
859.91	806.247
861.014	806.256
862.116	805.547
863.22	804.607
864.322	803.371
865.425	802.848
866.527	801.917
867.628	800.548
868.73	797.259
869.831	793.445
870.932	789.159
872.032	785.205
873.133	781.122
874.233	777.165
875.333	773.558
876.432	770.202
877.532	767.294
878.631	764.787
879.729	762.757
880.828	761.185
881.926	760.452
883.023	759.941
884.121	759.949
885.218	760.573
886.315	761.862
887.412	762.659
888.508	763.643
889.604	764.83
890.699	766.62
891.795	767.187
892.89	766.976
893.985	765.932
895.08	763.631
896.174	760.828
897.268	757.839
898.362	755.435
899.456	752.983
900.549	750.799
901.642	749.375
902.734	748.971
903.827	750.308
904.919	749.725
906.011	751.301
907.102	755.547
908.193	759.249
909.284	763.339
910.375	767.588
911.465	771.125
912.555	773.633
913.645	774.424
914.734	774.415
915.824	773.075
916.913	770.39
918.001	766.228
919.09	760.016
920.177	751.883
921.266	744.994
922.353	738.023
923.44	731.393
924.527	725.411
925.614	719.932
926.7	715.055
927.786	711.375
928.873	709.143
929.958	708.365
931.043	706.853
932.128	705.567
933.213	704.38
934.297	703.694
935.381	703.122
936.465	702.039
937.549	700.252
938.632	698.313
939.715	696.334
940.798	694.447
941.881	693.071
942.962	692.414
944.044	691.124
945.125	689.74
946.207	688.116
947.288	686.231
948.368	684.476
949.449	682.919
950.529	681.529
951.61	680.161
952.689	678.853
953.769	677.709
954.847	676.711
955.926	675.83
957.004	675.144
958.082	674.517
959.16	674.014
960.238	673.546
961.316	673.437
962.392	673.448
963.469	673.481
964.546	673.608
965.622	673.664
966.698	673.793
967.774	673.882
968.849	673.576
969.924	673.505
970.998	673.478
972.073	673.542
973.148	673.655
974.221	673.978
975.295	674.381
976.369	675.164
977.441	675.949
978.514	674.55
979.587	675.152
980.659	677.169
981.731	679.842
982.802	683.02
983.874	685.617
984.945	687.034
986.016	687.513
987.087	686.896
988.157	684.552
989.227	683.301
990.296	680.459
991.366	678.503
992.435	676.832
993.504	675.922
994.573	678.69
995.641	678.009
996.709	677.681
997.777	677.395
998.844	677.481
999.911	677.472
1000.98	676.409
1002.05	675.796
1003.11	673.812
1004.18	671.039
1005.24	667.831
1006.31	664.414
1007.37	660.533
1008.44	656.254
1009.5	651.879
1010.57	646.951
1011.63	641.523
1012.7	636.193
1013.76	631.99
1014.82	628.51
1015.89	625.773
1016.95	623.282
1018.01	620.922
1019.07	618.346
1020.13	615.152
1021.2	611.834
1022.26	608.673
1023.32	605.625
1024.38	603.126
1025.44	600.985
1026.5	598.926
1027.56	597.029
1028.62	595.298
1029.68	593.27
1030.74	591.01
1031.8	589.265
1032.85	588.194
1033.91	587.434
1034.97	587.107
1036.03	586.704
1037.09	586.393
1038.14	586.641
1039.2	587.985
1040.26	589.409
1041.31	590.417
1042.37	591.744
1043.42	593.136
1044.48	594.274
1045.53	595.168
1046.59	595.731
1047.64	595.507
1048.7	595.43
1049.75	594.545
1050.81	591.905
1051.86	588.201
1052.91	584.385
1053.97	580.733
1055.02	577.598
1056.07	574.986
1057.12	572.604
1058.17	570.295
1059.23	568.353
1060.28	566.849
1061.33	565.706
1062.38	565.474
1063.43	566.061
1064.48	566.787
1065.53	567.625
1066.58	568.036
1067.63	568.653
1068.68	569.783
1069.72	570.651
1070.77	571.077
1071.82	570.823
1072.87	569.773
1073.92	568.035
1074.96	565.488
1076.01	562.402
1077.06	558.826
1078.1	554.34
1079.15	549.626
1080.2	544.739
1081.24	540.603
1082.29	536.588
1083.33	533.144
1084.38	530.434
1085.42	528.381
1086.47	528.199
1087.51	528.911
1088.55	529.531
1089.6	530.653
1090.64	531.421
1091.68	532.002
1092.73	532.13
1093.77	532.015
1094.81	531.758
1095.85	531.359
1096.89	531.036
1097.93	530.783
1098.98	530.536
1100.02	530.159
1101.06	529.723
1102.1	528.988
1103.14	528.129
1104.18	527.327
1105.21	526.162
1106.25	525.861
1107.29	525.731
1108.33	525.619
1109.37	525.434
1110.41	525.216
1111.44	524.885
1112.48	524.184
1113.52	523.46
1114.56	522.506
1115.59	521.437
1116.63	520.18
1117.66	518.656
1118.7	516.906
1119.73	514.995
1120.77	512.94
1121.8	510.532
1122.84	508.18
1123.87	505.976
1124.91	504.603
1125.94	503.852
1126.97	503.73
1128.01	504.08
1129.04	504.928
1130.07	506.476
1131.11	508.563
1132.14	511.364
1133.17	515.153
1134.2	520.514
1135.23	525.52
1136.26	530.557
1137.29	535.226
1138.32	539.53
1139.35	543.694
1140.38	548.03
1141.41	552.546
1142.44	556.661
1143.47	560.187
1144.5	561.772
1145.53	564.492
1146.56	564.273
1147.58	564.64
1148.61	569.331
1149.64	574.366
1150.67	580.088
1151.69	586.145
1152.72	591.835
1153.75	597.379
1154.77	601.429
1155.8	604.04
1156.82	605.873
1157.85	606.69
1158.87	605.152
1159.9	602.288
1160.92	597.142
1161.95	585.084
1162.97	571.263
1163.99	548.226
1165.02	534.505
1166.04	522.549
1167.06	512.598
1168.08	503.645
1169.11	504.346
1170.13	501.383
1171.15	496.884
1172.17	496.047
1173.19	496.475
1174.21	497.271
1175.23	498.741
1176.25	501.145
1177.27	501.702
1178.29	505.39
1179.31	509.483
1180.33	513.595
1181.35	517.707
1182.37	521.707
1183.39	525.479
1184.4	529.482
1185.42	531.4
1186.44	531.839
1187.46	530.454
1188.47	526.306
1189.49	523.146
1190.51	516.217
1191.52	510.794
1192.54	505.428
1193.55	500.24
1194.57	495.115
1195.58	489.896
1196.6	484.646
1197.61	479.897
1198.63	476.693
1199.64	475.077
1200.65	473.287
1201.67	471.988
1202.68	470.893
1203.69	470.074
1204.7	469.882
1205.72	470.075
1206.73	470.518
1207.74	471.126
1208.75	471.76
1209.76	472.32
1210.77	473.017
1211.78	473.503
1212.79	473.984
1213.8	474.365
1214.81	474.622
1215.82	474.755
1216.83	474.723
1217.84	474.541
1218.85	474.209
1219.86	473.668
1220.87	472.939
1221.87	472.087
1222.88	471.023
1223.89	469.79
1224.9	468.391
1225.9	466.855
1226.91	465.081
1227.92	463.187
1228.92	461.124
1229.93	458.728
1230.93	456.162
1231.94	453.469
1232.94	450.695
1233.95	447.816
1234.95	444.853
1235.95	442.004
1236.96	439.991
1237.96	437.559
1238.96	434.949
1239.97	432.264
1240.97	429.397
1241.97	426.293
1242.97	422.462
1243.98	418.81
1244.98	415.327
1245.98	412.136
1246.98	409.675
1247.98	407.608
1248.98	405.894
1249.98	404.568
1250.98	403.532
1251.98	402.917
1252.98	402.744
1253.98	402.92
1254.98	403.464
1255.98	404.257
1256.97	405.16
1257.97	406.296
1258.97	407.454
1259.97	408.317
1260.97	409.056
1261.96	409.136
1262.96	408.535
1263.95	407.645
1264.95	406.44
1265.95	405.023
1266.94	403.518
1267.94	402.274
1268.93	400.512
1269.93	398.399
1270.92	395.777
1271.92	392.582
1272.91	391.066
1273.9	389.222
1274.9	388.296
1275.89	388.275
1276.88	390.015
1277.87	393.115
1278.87	396.96
1279.86	400.137
1280.85	402.293
1281.84	403.531
1282.83	404.033
1283.82	403.905
1284.81	402.832
1285.81	403.766
1286.8	405.01
1287.79	406.648
1288.77	406.851
1289.76	404.099
1290.75	399.67
1291.74	396.76
1292.73	393.786
1293.72	391.043
1294.71	388.185
1295.69	385.754
1296.68	384.293
1297.67	382.746
1298.65	380.844
1299.64	379.443
1300.63	378.44
1301.61	377.605
1302.6	377.293
1303.58	378.607
1304.57	380.877
1305.55	382.281
1306.54	382.927
1307.52	382.606
1308.51	381.18
1309.49	378.268
1310.48	374.627
1311.46	370.574
1312.44	367.295
1313.42	364.727
1314.41	361.816
1315.39	361.361
1316.37	360.658
1317.35	366.25
1318.33	365.038
1319.32	370.624
1320.3	376.155
1321.28	382.391
1322.26	388.899
1323.24	395.965
1324.22	403.403
1325.2	410.958
1326.18	418.277
1327.15	422.535
1328.13	423.464
1329.11	422.024
1330.09	418.397
1331.07	412.918
1332.05	405.871
1333.02	396.812
1334	388.981
1334.98	378.546
1335.95	370.997
1336.93	364.904
1337.91	358.142
1338.88	357.13
1339.86	352.801
1340.83	350.374
1341.81	348.357
1342.78	346.753
1343.76	345.354
1344.73	344.288
1345.7	343.395
1346.68	342.736
1347.65	342.314
1348.62	342.065
1349.6	342.07
1350.57	342.126
1351.54	342.437
1352.51	342.85
1353.49	343.435
1354.46	344.536
1355.43	345.451
1356.4	344.955
1357.37	343.679
1358.34	341.826
1359.31	341.296
1360.28	338.593
1361.25	334.214
1362.22	328.263
1363.19	323.465
1364.16	319.918
1365.12	317.784
1366.09	317.065
1367.06	317.791
1368.03	319.605
1369	323.6
1369.96	323.483
1370.93	321.949
1371.9	321.672
1372.86	322.736
1373.83	322.073
1374.79	321.61
1375.76	321.198
1376.73	320.863
1377.69	320.492
1378.66	320.243
1379.62	320.078
1380.58	319.759
1381.55	319.503
1382.51	319.389
1383.48	319.668
1384.44	320.126
1385.4	321.535
1386.36	323.132
1387.33	324.034
1388.29	324.369
1389.25	324.162
1390.21	323.788
1391.17	323.266
1392.13	322.639
1393.09	321.773
1394.06	320.745
1395.01	319.47
1395.97	318.008
1396.93	316.461
1397.89	315.343
1398.85	315.195
1399.81	313.174
1400.77	310.85
1401.73	308.487
1402.69	306.273
1403.64	304.116
1404.6	301.877
1405.56	299.313
1406.52	296.57
1407.47	293.825
1408.43	291.333
1409.39	289.876
1410.34	288.907
1411.3	288.497
1412.25	288.537
1413.21	289.205
1414.16	290.161
1415.12	291.193
1416.07	292.051
1417.03	292.669
1417.98	292.662
1418.93	292.343
1419.89	291.989
1420.84	291.583
1421.79	291.578
1422.74	291.124
1423.7	289.92
1424.65	289.872
1425.6	290.619
1426.55	291.748
1427.5	292.959
1428.45	294.276
1429.4	295.913
1430.35	297.695
1431.3	299.715
1432.25	301.912
1433.2	304.199
1434.15	306.543
1435.1	308.746
1436.05	310.542
1437	311.022
1437.95	311.306
1438.89	311.144
1439.84	310.324
1440.79	309.152
1441.74	307.429
1442.68	305.535
1443.63	303.707
1444.58	302.032
1445.52	300.343
1446.47	298.785
1447.41	297.535
1448.36	296.576
1449.3	295.689
1450.25	294.862
1451.19	294.011
1452.14	293.124
1453.08	292.099
1454.03	290.612
1454.97	288.691
1455.91	286.555
1456.85	284.273
1457.8	282.029
1458.74	280.011
1459.68	278.4
1460.62	277.125
1461.57	276.205
1462.51	276.12
1463.45	276.68
1464.39	276.353
1465.33	275.963
1466.27	275.469
1467.21	274.624
1468.15	273.474
1469.09	272.397
1470.03	271.36
1470.97	270.392
1471.9	269.54
1472.84	268.753
1473.78	268.087
1474.72	267.509
1475.66	267.126
1476.59	266.807
1477.53	266.687
1478.47	266.682
1479.4	266.762
1480.34	267.003
1481.28	267.39
1482.21	267.865
1483.15	268.458
1484.08	269.219
1485.02	270.118
1485.95	271.057
1486.89	272.064
1487.82	273.132
1488.76	274.151
1489.69	275.194
1490.62	275.455
1491.56	275.72
1492.49	275.478
1493.42	274.86
1494.35	273.111
1495.29	271.109
1496.22	269.177
1497.15	268.026
1498.08	267.127
1499.01	266.594
1499.94	266.508
1500.87	266.619
1501.8	266.531
1502.73	266.157
1503.66	265.857
1504.59	265.669
1505.52	265.961
1506.45	266.715
1507.38	267.431
1508.31	268.336
1509.23	270.964
1510.16	274.427
1511.09	278.486
1512.02	282.84
1512.94	287.869
1513.87	293.345
1514.8	299.307
1515.72	305.653
1516.65	312.383
1517.58	319.55
1518.5	327.056
1519.43	334.488
1520.35	340.932
1521.28	348.323
1522.2	355.444
1523.12	362.547
1524.05	369.409
1524.97	376.799
1525.9	382.045
1526.82	385.379
1527.74	385.996
1528.66	383.391
1529.59	377.521
1530.51	373.176
1531.43	361.756
1532.35	353.123
1533.27	344.502
1534.19	336.013
1535.11	327.853
1536.04	324.84
1536.96	319.496
1537.88	313.224
1538.8	306.367
1539.71	299.657
1540.63	293.228
1541.55	286.937
1542.47	282.285
1543.39	278.757
1544.31	276.514
1545.23	274.982
1546.14	274.314
1547.06	274.058
1547.98	274.113
1548.89	274.506
1549.81	274.97
1550.73	275.515
1551.64	276.006
1552.56	276.24
1553.47	275.831
1554.39	274.735
1555.31	272.887
1556.22	270.482
1557.13	267.79
1558.05	264.826
1558.96	262.084
1559.88	259.645
1560.79	257.95
1561.7	254.55
1562.62	250.948
1563.53	247.252
1564.44	244.257
1565.35	242.154
1566.27	240.792
1567.18	240.34
1568.09	240.332
1569	240.396
1569.91	240.293
1570.82	239.972
1571.73	239.701
1572.64	237.773
1573.55	236.937
1574.46	236.115
1575.37	235.289
1576.28	234.497
1577.19	233.704
1578.1	233.009
1579	232.039
1579.91	231.167
1580.82	230.313
1581.73	229.622
1582.63	229.179
1583.54	229.084
1584.45	229.584
1585.35	230.921
1586.26	231.661
1587.17	232.452
1588.07	233.531
1588.98	234.688
1589.88	235.454
1590.79	236.068
1591.69	236.275
1592.6	236.405
1593.5	236.532
1594.4	236.736
1595.31	236.415
1596.21	236.204
1597.11	236.173
1598.02	236.402
1598.92	237.096
1599.82	238.321
1600.72	239.989
1601.63	242.052
1602.53	244.348
1603.43	246.69
1604.33	248.976
1605.23	250.909
1606.13	252.462
1607.03	253.634
1607.93	254.376
1608.83	253.936
1609.73	251.835
1610.63	251.128
1611.53	250.149
1612.43	249.149
1613.32	248.131
1614.22	247.134
1615.12	246.177
1616.02	245.256
1616.92	244.212
1617.81	243.513
1618.71	243.043
1619.61	242.66
1620.5	242.365
1621.4	241.982
1622.29	241.626
1623.19	241.258
1624.08	240.852
1624.98	240.451
1625.87	240.103
1626.77	239.641
1627.66	238.999
1628.56	238.233
1629.45	237.385
1630.34	236.692
1631.24	236.271
1632.13	236.071
1632.84	235.883
1633.77	235.437
1634.7	234.978
1635.63	234.245
1636.56	233.549
1637.49	232.71
1638.42	231.399
1639.34	229.846
1640.27	228.044
1641.2	226.509
1642.13	225.209
1643.05	224.151
1643.98	223.926
1644.91	224.026
1645.83	224.655
1646.76	225.451
1647.68	226.257
1648.61	227.136
1649.54	228.041
1650.46	228.959
1651.39	229.826
1652.31	230.541
1653.23	231.422
1654.16	232.137
1655.08	232.575
1656.01	232.664
1656.93	231.569
1657.85	230.209
1658.78	228.586
1659.7	227.94
1660.62	227.69
1661.54	228.178
1662.47	228.734
1663.39	228.546
1664.31	228.308
1665.23	228.053
1666.15	227.806
1667.07	227.61
1667.99	227.455
1668.92	227.583
1669.84	227.667
1670.76	227.738
1671.68	227.694
1672.6	227.222
1673.52	226.552
1674.43	225.785
1675.35	224.981
1676.27	224.303
1677.19	223.867
1678.11	223.501
1679.03	222.982
1679.95	222.325
1680.86	221.072
1681.78	219.489
1682.7	217.852
1683.61	216.336
1684.53	215.621
1685.45	214.96
1686.36	214.249
1687.28	213.266
1688.2	212.136
1689.11	210.589
1690.03	209.131
1690.94	207.862
1691.86	207.308
1692.77	206.972
1693.69	206.758
1694.6	206.657
1695.52	206.664
1696.43	206.717
1697.34	206.767
1698.26	206.919
1699.17	207.114
1700.08	207.375
1700.99	207.623
1701.91	207.898
1702.82	208.304
1703.73	208.596
1704.64	208.548
1705.55	207.428
1706.47	205.47
1707.38	203.368
1708.29	201.967
1709.2	200.956
1710.11	200.685
1711.02	200.398
1711.93	199.937
1712.84	199.525
1713.75	199.26
1714.66	199.034
1715.57	198.962
1716.48	198.876
1717.39	198.761
1718.29	198.557
1719.2	198.234
1720.11	197.898
1721.02	197.495
1721.93	197.02
1722.83	196.476
1723.74	195.886
1724.65	195.197
1725.55	194.495
1726.46	193.71
1727.37	192.641
1728.27	191.491
1729.18	190.48
1730.08	189.588
1730.99	189.015
1731.89	189.054
1732.8	189.272
1733.7	189.595
1734.61	189.952
1735.51	190.107
1736.42	190.002
1737.32	189.853
1738.22	189.779
1739.13	189.673
1740.03	189.738
1740.93	189.668
1741.83	189.641
1742.74	189.652
1743.64	190.39
1744.54	190.779
1745.44	190.556
1746.34	190.215
1747.24	189.964
1748.15	190.118
1749.05	190.116
1749.95	190.05
1750.85	189.759
1751.75	188.53
1752.65	187.169
1753.55	186.015
1754.45	184.914
1755.35	184.356
1756.25	183.925
1757.14	183.662
1758.04	183.515
1758.94	183.467
1759.84	183.539
1760.74	183.595
1761.63	183.724
1762.53	183.929
1763.43	184.218
1764.33	184.601
1765.22	184.969
1766.12	185.687
1767.02	186.37
1767.91	186.984
1768.81	187.416
1769.7	186.875
1770.6	186.24
1771.49	185.182
1772.39	183.808
1773.28	182.193
1774.18	180.357
1775.07	177.987
1775.97	175.772
1776.86	174.483
1777.75	173.574
1778.65	173.006
1779.54	172.776
1780.43	172.692
1781.33	172.833
1782.22	173.206
1783.11	173.906
1784	174.678
1784.89	175.505
1785.79	176.157
1786.68	176.598
1787.57	176.91
1788.46	177.004
1789.35	176.966
1790.24	177.753
1791.13	178.291
1792.02	178.833
1792.91	179.398
1793.8	179.797
1794.69	179.751
1795.58	178.991
1796.47	177.773
1797.36	176.024
1798.25	173.595
1799.13	170.485
