Acq. time (s)=	15
Accumulations=	2
Range (cm-¹)=	600...1800
Windows=	2
Autofocus=	Off
AutoExposure=	On
Spike filter=	Multiple accum.
Delay time (s)=	1
Binning=	1
Readout mode=	Signal
DeNoise=	Standard
ICS correction=	Off
Dark correction=	Off
Inst. Process=	Off
Instrument=	XploRA
Detector=	Syncerity
Objective=	x20LWD
Grating=	1200 gr/mm
Filter=	25%
Laser (nm)=	785 
Slit (µm)=	100 
Hole (µm)=	300 
Laser pol=	None
Raman pol=	None
Output=	Camera
StageXY=	Marzhauser
StageZ=	
X (µm)=	4087.3
Y (µm)=	-2827.4
Project=	
Sample=	
Site=	
Title=	To8-T
Remark=	
Date=	14.10.2022 23:19
Acquired=	14.10.2022 23:19:14
600.787	320.092
601.956	328.369
603.126	334.923
604.294	341.24
605.463	346.083
606.631	350.198
607.8	353.848
608.967	356.955
610.135	360.215
611.302	363.448
612.468	366.6
613.635	368.23
614.802	368.623
615.968	369.145
617.133	368.943
618.299	368.76
619.464	368.98
620.629	369.412
621.793	369.349
622.958	370.689
624.121	371.818
625.285	373.017
626.448	373.876
627.612	375.097
628.774	375.6
629.937	376.202
631.099	377.412
632.261	378.092
633.423	379.175
634.584	379.618
635.745	380.39
636.906	379.441
638.066	377.758
639.227	376.639
640.386	376.014
641.546	377.281
642.705	377.598
643.864	380.1
645.023	384.463
646.181	389.001
647.339	388.163
648.497	387.899
649.655	388.116
650.812	372.359
651.969	374.204
653.125	372.601
654.282	371.941
655.438	371.427
656.593	371.592
657.75	372.324
658.905	373.283
660.059	374.089
661.214	374.599
662.368	375.733
663.522	377.302
664.676	378.694
665.83	379.696
666.983	380.413
668.136	381.45
669.288	382.885
670.441	383.181
671.592	383.009
672.744	383.164
673.895	382.737
675.046	382.245
676.197	382.771
677.348	383.764
678.498	383.944
679.648	384.342
680.798	384.16
681.947	383.116
683.096	382.173
684.245	380.95
685.394	379.542
686.542	377.571
687.69	376.487
688.837	376.289
689.984	376.013
691.132	376.589
692.278	376.994
693.425	376.657
694.571	376.633
695.717	376.057
696.863	375.489
698.008	374.993
699.152	374.708
700.298	374.408
701.442	373.219
702.586	372.576
703.73	371.066
704.873	370.164
706.017	370.339
707.16	370.86
708.302	371.837
709.445	372.752
710.586	373.699
711.729	374.928
712.87	376.041
714.012	377.631
715.152	378.549
716.293	378.583
717.433	378.743
718.573	378.331
719.713	377.419
720.853	377.113
721.991	376.495
723.131	375.878
724.269	374.648
725.408	373.245
726.545	371.193
727.683	370.638
728.821	369.811
729.958	368.036
731.095	367.51
732.231	366.846
733.368	367.01
734.503	368.564
735.639	369.544
736.775	370.167
737.91	371.151
739.045	372.626
740.179	374.696
741.313	375.729
742.447	377.278
743.581	378.349
744.714	378.365
745.847	378.855
746.98	378.093
748.113	376.667
749.245	375.392
750.377	374.281
751.509	372.655
752.64	371.245
753.771	369.428
754.902	366.777
756.033	365.386
757.163	364.045
758.293	362.925
759.423	361.386
760.551	360.062
761.681	358.347
762.81	357.121
763.938	356.315
765.066	355.267
766.194	353.614
767.321	352.283
768.449	351.059
769.576	349.081
770.703	347.921
771.83	347.26
772.955	346.719
774.081	346.206
775.207	344.805
776.332	342.93
777.457	341.557
778.582	340.985
779.707	340.03
780.831	339.74
781.954	339.461
783.078	338.503
784.201	337.9
785.324	337.547
786.447	336.544
787.569	334.937
788.691	333.857
789.813	332.554
790.935	331.125
792.056	330.168
793.177	329.409
794.297	327.999
795.418	327.275
796.539	326.004
797.658	325.497
798.777	324.176
799.897	323.241
801.016	323.313
802.134	322.908
803.253	322.484
804.371	322.94
805.489	323.257
806.606	323.346
807.723	323.185
808.84	323.359
809.957	323.468
811.073	323.694
812.19	322.424
813.305	321.316
814.421	320.876
815.536	319.774
816.651	318.559
817.766	317.691
818.88	316.128
819.994	315.128
821.108	313.794
822.221	313.178
823.335	313.288
824.448	312.56
825.56	312.083
826.673	311.647
827.784	311.018
828.897	310.358
830.008	310.211
831.119	310.114
832.23	309.963
833.341	310.752
834.451	311.429
835.561	312.588
836.671	314.065
837.78	314.359
838.89	314.753
839.998	314.23
841.108	314.108
842.216	313.766
843.324	313.383
844.431	313.012
845.539	311.878
846.646	310.022
847.753	308.726
848.859	307.634
849.966	306.765
851.071	304.828
852.178	302.663
853.283	300.573
854.388	298.819
855.494	297.41
856.598	295.284
857.703	293.703
858.806	293.156
859.91	292.436
861.014	292.533
862.116	292.835
863.22	293.402
864.322	293.154
865.425	292.587
866.527	292.472
867.628	292.055
868.73	291.174
869.831	290.922
870.932	289.482
872.032	287.339
873.133	284.419
874.233	281.823
875.333	279.277
876.432	277.539
877.532	275.948
878.631	273.916
879.729	273.206
880.828	272.757
881.926	272.25
883.023	272.163
884.121	272.024
885.218	272.303
886.315	272.278
887.412	272.864
888.508	273.676
889.604	274.128
890.699	274.592
891.795	274.329
892.89	274.508
893.985	271.538
895.08	274.388
896.174	277.301
897.268	285.625
898.362	285.979
899.456	286.535
900.549	287.315
901.642	285.077
902.734	281.746
903.827	273.96
904.919	270.132
906.011	270.999
907.102	270.994
908.193	270.944
909.284	271.212
910.375	271.635
911.465	272.136
912.555	273.149
913.645	273.106
914.734	273.525
915.824	274.142
916.913	275.357
918.001	278.648
919.09	277.709
920.177	275.802
921.266	273.348
922.353	269.299
923.44	266.25
924.527	262.367
925.614	260.083
926.7	258.295
927.786	256.74
928.873	256.138
929.958	255.721
931.043	255.933
932.128	256.867
933.213	257.908
934.297	258.919
935.381	259.414
936.465	258.914
937.549	259.133
938.632	258.259
939.715	257.604
940.798	256.909
941.881	255.936
942.962	254.575
944.044	253.337
945.125	251.719
946.207	249.333
947.288	246.958
948.368	245.258
949.449	244.356
950.529	243.837
951.61	244.505
952.689	245.613
953.769	246.34
954.847	247.412
955.926	247.631
957.004	247.758
958.082	246.936
959.16	247.325
960.238	247.979
961.316	248.753
962.392	249.339
963.469	250.351
964.546	251.05
965.622	252.07
966.698	250.413
967.774	248.244
968.849	246.492
969.924	245.181
970.998	244.578
972.073	243.027
973.148	242.487
974.221	241.71
975.295	241.789
976.369	242.504
977.441	243.64
978.514	246.09
979.587	247.769
980.659	249.957
981.731	251.269
982.802	253.129
983.874	251.143
984.945	253.034
986.016	254.764
987.087	255.136
988.157	254.785
989.227	254.388
990.296	254.146
991.366	254.024
992.435	253.601
993.504	251.391
994.573	249.418
995.641	247.789
996.709	246.228
997.777	246.714
998.844	246.788
999.911	246.036
1000.98	244.783
1002.05	243.101
1003.11	241.051
1004.18	239.897
1005.24	238.235
1006.31	236.674
1007.37	235.256
1008.44	234.15
1009.5	232.671
1010.57	230.608
1011.63	229.17
1012.7	227.75
1013.76	226.448
1014.82	225.447
1015.89	224.156
1016.95	222.918
1018.01	221.801
1019.07	220.595
1020.13	219.776
1021.2	218.969
1022.26	217.262
1023.32	215.651
1024.38	214.79
1025.44	213.998
1026.5	213.533
1027.56	213.326
1028.62	212.735
1029.68	212.252
1030.74	210.875
1031.8	210.514
1032.85	210.14
1033.91	210.311
1034.97	210.764
1036.03	211.273
1037.09	211.354
1038.14	212.638
1039.2	213.413
1040.26	214.534
1041.31	214.795
1042.37	214.068
1043.42	213.974
1044.48	213.407
1045.53	213.107
1046.59	213.632
1047.64	214.528
1048.7	215.034
1049.75	215.12
1050.81	214.929
1051.86	214.187
1052.91	213.278
1053.97	211.776
1055.02	208.844
1056.07	206.71
1057.12	206.605
1058.17	207.255
1059.23	209.211
1060.28	208.406
1061.33	207.636
1062.38	207.314
1063.43	204.164
1064.48	195.824
1065.53	198.869
1066.58	202.589
1067.63	205.722
1068.68	211.523
1069.72	211.728
1070.77	211.276
1071.82	210.263
1072.87	208.435
1073.92	206.952
1074.96	204.701
1076.01	202.073
1077.06	199.778
1078.1	197.702
1079.15	195.971
1080.2	195.13
1081.24	195.709
1082.29	195.448
1083.33	195.63
1084.38	195.923
1085.42	197.411
1086.47	196.756
1087.51	196.235
1088.55	195.882
1089.6	196.696
1090.64	197.606
1091.68	198.523
1092.73	198.852
1093.77	197.604
1094.81	196.691
1095.85	195.428
1096.89	194.346
1097.93	193.132
1098.98	191.699
1100.02	190.53
1101.06	189.424
1102.1	188.94
1103.14	188.48
1104.18	188.34
1105.21	188.185
1106.25	188.305
1107.29	188.283
1108.33	188.54
1109.37	189.258
1110.41	189.842
1111.44	189.838
1112.48	189.28
1113.52	189.337
1114.56	189.158
1115.59	189.441
1116.63	188.803
1117.66	188.353
1118.7	187.194
1119.73	186.691
1120.77	185.374
1121.8	184.565
1122.84	183.927
1123.87	183.208
1124.91	182.677
1125.94	182.96
1126.97	183.484
1128.01	183.653
1129.04	184.308
1130.07	184.798
1131.11	185.673
1132.14	186.435
1133.17	187.508
1134.2	189.192
1135.23	190.072
1136.26	191.261
1137.29	191.819
1138.32	193.226
1139.35	194.496
1140.38	195.594
1141.41	196.658
1142.44	198.209
1143.47	199.785
1144.5	201.456
1145.53	202.069
1146.56	202.902
1147.58	203.987
1148.61	205.322
1149.64	206.904
1150.67	208.751
1151.69	210.818
1152.72	212.986
1153.75	214.678
1154.77	215.265
1155.8	214.705
1156.82	212.968
1157.85	209.947
1158.87	206.405
1159.9	202.858
1160.92	198.239
1161.95	193.95
1162.97	190.143
1163.99	187.103
1165.02	184.26
1166.04	182.233
1167.06	180.084
1168.08	178.326
1169.11	177.055
1170.13	176.469
1171.15	175.965
1172.17	176.129
1173.19	176.887
1174.21	178.512
1175.23	179.961
1176.25	180.976
1177.27	182.739
1178.29	184.258
1179.31	185.638
1180.33	186.811
1181.35	188.039
1182.37	189.773
1183.39	191.336
1184.4	192.307
1185.42	192.765
1186.44	192.28
1187.46	190.987
1188.47	189.176
1189.49	187.214
1190.51	184.814
1191.52	182.298
1192.54	179.197
1193.55	176.214
1194.57	173.578
1195.58	171.55
1196.6	170.152
1197.61	169.1
1198.63	168.366
1199.64	167.813
1200.65	167.084
1201.67	166.928
1202.68	166.456
1203.69	166.521
1204.7	166.525
1205.72	166.652
1206.73	166.629
1207.74	166.819
1208.75	166.945
1209.76	167.159
1210.77	167.527
1211.78	168.102
1212.79	168.799
1213.8	169.597
1214.81	170.728
1215.82	171.939
1216.83	172.762
1217.84	173.399
1218.85	173.811
1219.86	174.191
1220.87	174.089
1221.87	174.101
1222.88	174.014
1223.89	173.648
1224.9	173.145
1225.9	172.084
1226.91	170.742
1227.92	169.65
1228.92	168.203
1229.93	166.486
1230.93	164.638
1231.94	162.851
1232.94	161.142
1233.95	159.733
1234.95	158.186
1235.95	156.941
1236.96	156.153
1237.96	155.306
1238.96	154.817
1239.97	154.64
1240.97	154.15
1241.97	153.971
1242.97	153.595
1243.98	153.025
1244.98	152.943
1245.98	152.374
1246.98	151.841
1247.98	151.381
1248.98	150.752
1249.98	149.974
1250.98	149.296
1251.98	148.095
1252.98	147.315
1253.98	146.853
1254.98	146.451
1255.98	146.283
1256.97	146.493
1257.97	147.097
1258.97	148.086
1259.97	148.607
1260.97	148.988
1261.96	149.626
1262.96	149.761
1263.95	149.939
1264.95	149.316
1265.95	148.521
1266.94	147.61
1267.94	146.492
1268.93	145.128
1269.93	143.621
1270.92	142.472
1271.92	141.318
1272.91	140.446
1273.9	139.403
1274.9	138.407
1275.89	138.851
1276.88	139.993
1277.87	141.905
1278.87	143.376
1279.86	145.221
1280.85	146.107
1281.84	147.334
1282.83	147.24
1283.82	146.754
1284.81	142.051
1285.81	142.227
1286.8	142.681
1287.79	144.1
1288.77	148.256
1289.76	150.037
1290.75	148.132
1291.74	146.378
1292.73	145.893
1293.72	144.965
1294.71	143.566
1295.69	142.014
1296.68	140.631
1297.67	139.533
1298.65	138.877
1299.64	138.618
1300.63	138.793
1301.61	139.291
1302.6	139.852
1303.58	140.656
1304.57	141.236
1305.55	140.838
1306.54	140.405
1307.52	139.57
1308.51	138.388
1309.49	137.118
1310.48	136.106
1311.46	135.125
1312.44	134.405
1313.42	132.504
1314.41	131.085
1315.39	130.635
1316.37	131.035
1317.35	132.219
1318.33	134.679
1319.32	137.802
1320.3	140.667
1321.28	144.235
1322.26	146.795
1323.24	149.754
1324.22	151.643
1325.2	153.751
1326.18	154.738
1327.15	155.132
1328.13	154.959
1329.11	152.836
1330.09	149.513
1331.07	146.451
1332.05	143.805
1333.02	140.817
1334	137.414
1334.98	134.395
1335.95	132.538
1336.93	131.493
1337.91	130.436
1338.88	129.233
1339.86	128.665
1340.83	128.259
1341.81	127.803
1342.78	126.897
1343.76	126.028
1344.73	125.571
1345.7	125.302
1346.68	125.241
1347.65	125.099
1348.62	124.93
1349.6	125.614
1350.57	126.828
1351.54	128.066
1352.51	129.045
1353.49	129.172
1354.46	129.059
1355.43	128.806
1356.4	128.494
1357.37	128.025
1358.34	127.47
1359.31	126.736
1360.28	125.88
1361.25	124.687
1362.22	123.391
1363.19	121.444
1364.16	119.095
1365.12	117.714
1366.09	116.639
1367.06	115.843
1368.03	115.817
1369	116.327
1369.96	117.487
1370.93	118.727
1371.9	120.183
1372.86	121.633
1373.83	122.387
1374.79	122.767
1375.76	122.846
1376.73	122.495
1377.69	121.93
1378.66	120.867
1379.62	119.595
1380.58	118.54
1381.55	118.35
1382.51	118.537
1383.48	118.937
1384.44	118.536
1385.4	117.754
1386.36	116.864
1387.33	116.445
1388.29	116.575
1389.25	116.373
1390.21	116.045
1391.17	115.591
1392.13	115.244
1393.09	114.815
1394.06	114.632
1395.01	114.842
1395.97	114.975
1396.93	114.825
1397.89	114.776
1398.85	114.986
1399.81	115.151
1400.77	114.617
1401.73	114.61
1402.69	114.829
1403.64	114.429
1404.6	113.749
1405.56	112.876
1406.52	112.107
1407.47	110.804
1408.43	108.015
1409.39	108.01
1410.34	108.566
1411.3	108.793
1412.25	108.852
1413.21	109.197
1414.16	109.864
1415.12	111.137
1416.07	112.705
1417.03	114.726
1417.98	116.462
1418.93	116.283
1419.89	115.533
1420.84	114.879
1421.79	114.252
1422.74	113.734
1423.7	113.29
1424.65	112.998
1425.6	111.328
1426.55	109.885
1427.5	108.476
1428.45	108.116
1429.4	109.29
1430.35	111.635
1431.3	113.579
1432.25	113.89
1433.2	115.082
1434.15	115.022
1435.1	113.629
1436.05	118.27
1437	120.944
1437.95	121.273
1438.89	116.18
1439.84	114.417
1440.79	112.091
1441.74	112.013
1442.68	111.119
1443.63	110.121
1444.58	109.425
1445.52	108.706
1446.47	108.108
1447.41	107.551
1448.36	107.245
1449.3	107.358
1450.25	107.06
1451.19	106.825
1452.14	106.185
1453.08	105.775
1454.03	105.148
1454.97	105.013
1455.91	104.433
1456.85	103.76
1457.8	103.326
1458.74	103.703
1459.68	104.069
1460.62	104.776
1461.57	104.822
1462.51	104.84
1463.45	105.085
1464.39	105.539
1465.33	106.159
1466.27	106.826
1467.21	106.836
1468.15	106.125
1469.09	105.486
1470.03	104.809
1470.97	104.168
1471.9	103.19
1472.84	101.971
1473.78	100.954
1474.72	100.29
1475.66	99.7941
1476.59	100.689
1477.53	101.609
1478.47	101.916
1479.4	102.712
1480.34	103.26
1481.28	103.835
1482.21	104.529
1483.15	105.321
1484.08	106.234
1485.02	106.949
1485.95	106.794
1486.89	106.47
1487.82	105.852
1488.76	105.11
1489.69	104.024
1490.62	102.549
1491.56	101.208
1492.49	99.8025
1493.42	99.1544
1494.35	98.5835
1495.29	98.6433
1496.22	98.4478
1497.15	98.4109
1498.08	98.7017
1499.01	99.1531
1499.94	99.3463
1500.87	99.2733
1501.8	99.1455
1502.73	99.4569
1503.66	99.0892
1504.59	98.5878
1505.52	98.2689
1506.45	98.2239
1507.38	98.1227
1508.31	98.3546
1509.23	98.5851
1510.16	99.1695
1511.09	99.9571
1512.02	101.395
1512.94	103.575
1513.87	106.127
1514.8	109.245
1515.72	111.981
1516.65	113.435
1517.58	116.133
1518.5	118.638
1519.43	121.283
1520.35	124.15
1521.28	127.531
1522.2	130.712
1523.12	133.423
1524.05	135.429
1524.97	136.901
1525.9	137.851
1526.82	138.282
1527.74	138.216
1528.66	137.641
1529.59	135.936
1530.51	133.202
1531.43	130.808
1532.35	127.976
1533.27	124.873
1534.19	121.628
1535.11	118.408
1536.04	115.697
1536.96	113.326
1537.88	111.148
1538.8	109.197
1539.71	107.867
1540.63	106.917
1541.55	106.805
1542.47	105.803
1543.39	104.648
1544.31	103.413
1545.23	102.307
1546.14	101.467
1547.06	100.79
1547.98	100.219
1548.89	99.7513
1549.81	99.3344
1550.73	98.8138
1551.64	97.9254
1552.56	97.1002
1553.47	96.4957
1554.39	95.8418
1555.31	95.0779
1556.22	94.6226
1557.13	94.5859
1558.05	94.4593
1558.96	93.7528
1559.88	92.6852
1560.79	90.8017
1561.7	88.9628
1562.62	87.1122
1563.53	86.0324
1564.44	85.1171
1565.35	84.1581
1566.27	83.9363
1567.18	84.0211
1568.09	84.1925
1569	84.2661
1569.91	84.4827
1570.82	84.6633
1571.73	84.8419
1572.64	85.0445
1573.55	85.2415
1574.46	85.4706
1575.37	85.6328
1576.28	85.7385
1577.19	85.4464
1578.1	85.043
1579	84.7922
1579.91	84.3442
1580.82	83.9136
1581.73	83.4975
1582.63	83.0276
1583.54	82.4158
1584.45	82.4953
1585.35	82.4585
1586.26	82.6049
1587.17	83.0276
1588.07	83.8011
1588.98	83.5973
1589.88	83.4505
1590.79	83.5988
1591.69	84.1588
1592.6	84.506
1593.5	84.7526
1594.4	84.6885
1595.31	84.4585
1596.21	84.387
1597.11	84.5161
1598.02	84.6661
1598.92	85.1244
1599.82	85.685
1600.72	86.2557
1601.63	86.8204
1602.53	87.6116
1603.43	88.3746
1604.33	88.5953
1605.23	88.3748
1606.13	87.8626
1607.03	87.822
1607.93	88.0046
1608.83	87.9772
1609.73	87.9992
1610.63	87.9785
1611.53	87.7702
1612.43	87.3437
1613.32	86.4771
1614.22	85.5049
1615.12	84.4682
1616.02	83.0145
1616.92	82.0217
1617.81	81.567
1618.71	81.2568
1619.61	81.1853
1620.5	81.5002
1621.4	82.0151
1622.29	82.8901
1623.19	83.4454
1624.08	83.8527
1624.98	84.0541
1625.87	83.7703
1626.77	83.094
1627.66	82.2246
1628.56	81.3228
1629.45	80.554
1630.34	80.0778
1631.24	79.7399
1632.13	79.4262
1632.84	79.4008
1633.77	79.2939
1634.7	79.5086
1635.63	79.8409
1636.56	80.0221
1637.49	80.7551
1638.42	81.3874
1639.34	81.7377
1640.27	81.4413
1641.2	80.6728
1642.13	79.7715
1643.05	79.3146
1643.98	79.1257
1644.91	78.8783
1645.83	78.532
1646.76	77.9438
1647.68	77.6022
1648.61	77.1865
1649.54	76.9868
1650.46	76.7567
1651.39	76.6056
1652.31	76.1725
1653.23	75.2998
1654.16	74.7351
1655.08	74.4028
1656.01	74.28
1656.93	74.9704
1657.85	75.8971
1658.78	76.5268
1659.7	77.3499
1660.62	78.0937
1661.54	79.1919
1662.47	79.5889
1663.39	79.5961
1664.31	78.9386
1665.23	78.0986
1666.15	77.6829
1667.07	77.187
1667.99	76.6026
1668.92	75.9909
1669.84	75.0022
1670.76	74.3285
1671.68	74.2675
1672.6	74.1891
1673.52	73.6941
1674.43	73.5742
1675.35	73.423
1676.27	73.6386
1677.19	74.4095
1678.11	75.0779
1679.03	75.702
1679.95	76.4007
1680.86	76.249
1681.78	75.4103
1682.7	74.723
1683.61	73.3726
1684.53	72.6718
1685.45	72.2505
1686.36	71.7653
1687.28	70.9814
1688.2	70.3139
1689.11	69.9836
1690.03	69.614
1690.94	69.9883
1691.86	69.9894
1692.77	69.8742
1693.69	69.9627
1694.6	70.2098
1695.52	70.4297
1696.43	70.6949
1697.34	70.7978
1698.26	70.7546
1699.17	70.778
1700.08	70.4368
1700.99	70.3363
1701.91	70.3142
1702.82	70.1647
1703.73	70.0967
1704.64	69.7346
1705.55	69.7254
1706.47	69.712
1707.38	69.5351
1708.29	69.264
1709.2	69.1443
1710.11	68.9008
1711.02	68.3375
1711.93	68.1728
1712.84	67.5268
1713.75	67.1458
1714.66	66.6877
1715.57	66.7168
1716.48	66.5612
1717.39	66.6325
1718.29	66.8939
1719.2	66.922
1720.11	66.8629
1721.02	68.1885
1721.93	68.1925
1722.83	68.1521
1723.74	68.1828
1724.65	67.8942
1725.55	68.0116
1726.46	68.4528
1727.37	68.8727
1728.27	66.9025
1729.18	66.0819
1730.08	65.6479
1730.99	65.0699
1731.89	64.5091
1732.8	64.2113
1733.7	63.9647
1734.61	63.8873
1735.51	64.1154
1736.42	65.1337
1737.32	65.3336
1738.22	65.5734
1739.13	65.9602
1740.03	66.2438
1740.93	66.6521
1741.83	65.9785
1742.74	65.5876
1743.64	64.6579
1744.54	64.2986
1745.44	64.0676
1746.34	63.8126
1747.24	63.5354
1748.15	63.517
1749.05	63.3969
1749.95	63.8844
1750.85	64.0642
1751.75	64.0723
1752.65	64.1128
1753.55	64.1776
1754.45	63.9228
1755.35	64.1662
1756.25	64.4909
1757.14	64.6405
1758.04	64.5222
1758.94	64.0141
1759.84	63.5434
1760.74	63.0576
1761.63	62.3836
1762.53	62.4095
1763.43	61.8785
1764.33	61.2007
1765.22	61.009
1766.12	61.0996
1767.02	61.4109
1767.91	61.9659
1768.81	62.29
1769.7	62.863
1770.6	63.5453
1771.49	63.9956
1772.39	64.1996
1773.28	64.3364
1774.18	64.3105
1775.07	64.4211
1775.97	64.2642
1776.86	64.2118
1777.75	64.1099
1778.65	63.9573
1779.54	63.6282
1780.43	63.7087
1781.33	63.0753
1782.22	62.3011
1783.11	61.6725
1784	61.0625
1784.89	60.8112
1785.79	60.1147
1786.68	59.2184
1787.57	58.548
1788.46	57.6876
1789.35	57.3247
1790.24	57.1788
1791.13	57.3861
1792.02	57.7646
1792.91	58.3029
1793.8	59.0581
1794.69	59.8133
1795.58	60.8664
1796.47	62.2679
1797.36	62.7501
1798.25	61.256
1799.13	60.0588
