Acq. time (s)=	15
Accumulations=	2
Range (cm-¹)=	600...1800
Windows=	2
Autofocus=	Off
AutoExposure=	On
Spike filter=	Multiple accum.
Delay time (s)=	1
Binning=	1
Readout mode=	Signal
DeNoise=	Standard
ICS correction=	Off
Dark correction=	Off
Inst. Process=	Off
Instrument=	XploRA
Detector=	Syncerity
Objective=	x20LWD
Grating=	1200 gr/mm
Filter=	25%
Laser (nm)=	785 
Slit (µm)=	100 
Hole (µm)=	300 
Laser pol=	None
Raman pol=	None
Output=	Camera
StageXY=	Marzhauser
StageZ=	
X (µm)=	13293.1
Y (µm)=	-432.6
Project=	
Sample=	
Site=	
Title=	To12-T
Remark=	
Date=	15.10.2022 18:52
Acquired=	15.10.2022 18:52:46
600.787	381.746
601.956	379.766
603.126	377.755
604.294	377.342
605.463	379.018
606.631	381.459
607.8	383.945
608.967	386.651
610.135	390.269
611.302	393.957
612.468	397.615
613.635	401.125
614.802	403.716
615.968	406.185
617.133	408.361
618.299	410.466
619.464	412.49
620.629	414.557
621.793	416.421
622.958	417.72
624.121	418.697
625.285	419.939
626.448	421.669
627.612	423.211
628.774	424.464
629.937	425.172
631.099	425.08
632.261	424.114
633.423	422.905
634.584	422.019
635.745	421.113
636.906	420.189
638.066	419.111
639.227	417.318
640.386	415.538
641.546	415.735
642.705	416.08
643.864	416.088
645.023	416.99
646.181	417.927
647.339	418.735
648.497	419.267
649.655	419.438
650.812	419.411
651.969	419.141
653.125	418.961
654.282	418.225
655.438	417.234
656.593	416.224
657.75	415.262
658.905	414.398
660.059	413.929
661.214	413.522
662.368	413.299
663.522	413.315
664.676	413.484
665.83	413.926
666.983	414.456
668.136	415.474
669.288	416.332
670.441	417.493
671.592	418.945
672.744	420.886
673.895	423.097
675.046	425.446
676.197	427.847
677.348	430.15
678.498	431.447
679.648	432.193
680.798	432.9
681.947	433.628
683.096	432.776
684.245	431.399
685.394	429.494
686.542	427.336
687.69	425.134
688.837	423.27
689.984	421.581
691.132	419.889
692.278	417.859
693.425	416.275
694.571	416.225
695.717	416.75
696.863	419.089
698.008	418.194
699.152	417.622
700.298	417.349
701.442	417.293
702.586	417.349
703.73	417.894
704.873	420.724
706.017	422.848
707.16	424.518
708.302	425.757
709.445	426.491
710.586	426.764
711.729	421.442
712.87	419.693
714.012	417.823
715.152	415.443
716.293	412.86
717.433	410.134
718.573	406.827
719.713	403.721
720.853	400.973
721.991	399.24
723.131	398.647
724.269	399.42
725.408	398.879
726.545	398.611
727.683	398.918
728.821	400.457
729.958	401.785
731.095	403.155
732.231	404.458
733.368	406.019
734.503	407.461
735.639	408.863
736.775	410.1
737.91	410.986
739.045	411.103
740.179	410.935
741.313	410.607
742.447	411.057
743.581	411.622
744.714	412.153
745.847	411.931
746.98	411.141
748.113	409.773
749.245	408.883
750.377	408.194
751.509	407.499
752.64	406.414
753.771	404.841
754.902	403.005
756.033	400.664
757.163	397.974
758.293	394.806
759.423	390.674
760.551	386.528
761.681	383.159
762.81	380.51
763.938	378.271
765.066	376.331
766.194	374.704
767.321	373.25
768.449	371.672
769.576	370.81
770.703	370.179
771.83	369.729
772.955	369.404
774.081	368.909
775.207	368.54
776.332	368.369
777.457	368.378
778.582	368.445
779.707	368.472
780.831	368.515
781.954	368.455
783.078	368.29
784.201	367.941
785.324	367.433
786.447	366.896
787.569	366.36
788.691	365.867
789.813	365.253
790.935	365.064
792.056	364.984
793.177	365.055
794.297	364.589
795.418	363.727
796.539	362.766
797.658	361.768
798.777	360.667
799.897	359.566
801.016	358.662
802.134	358.033
803.253	357.511
804.371	356.927
805.489	355.494
806.606	354.303
807.723	353.396
808.84	352.705
809.957	352.277
811.073	352.137
812.19	352.11
813.305	352.294
814.421	353.098
815.536	353.919
816.651	353.956
817.766	353.526
818.88	352.588
819.994	351.204
821.108	349.403
822.221	347.106
823.335	344.842
824.448	343.397
825.56	342.6
826.673	342.064
827.784	342.017
828.897	342.94
830.008	344.632
831.119	344.904
832.23	345.07
833.341	345.101
834.451	344.888
835.561	345.8
836.671	346.397
837.78	346.6
838.89	346.287
839.998	345.563
841.108	344.454
842.216	343.223
843.324	341.35
844.431	339.387
845.539	337.401
846.646	335.677
847.753	334.197
848.859	332.693
849.966	331.401
851.071	330.096
852.178	328.755
853.283	328.042
854.388	327.966
855.494	328.34
856.598	328.676
857.703	329.214
858.806	330.238
859.91	331.144
861.014	331.934
862.116	332.212
863.22	332.295
864.322	332.102
865.425	331.664
866.527	330.97
867.628	329.943
868.73	328.75
869.831	326.839
870.932	324.751
872.032	322.519
873.133	320.107
874.233	317.763
875.333	315.563
876.432	313.614
877.532	312.12
878.631	311.418
879.729	311.062
880.828	310.493
881.926	310.405
883.023	310.879
884.121	311.635
885.218	312.585
886.315	313.968
887.412	315.779
888.508	317.392
889.604	318.465
890.699	318.04
891.795	317.656
892.89	317.243
893.985	317.166
895.08	317.628
896.174	316.348
897.268	314.876
898.362	313.337
899.456	312.122
900.549	310.8
901.642	309.486
902.734	308.358
903.827	306.64
904.919	306.395
906.011	306.68
907.102	307.269
908.193	307.896
909.284	308.542
910.375	309.239
911.465	310.295
912.555	311.453
913.645	312.574
914.734	313.477
915.824	313.76
916.913	313.88
918.001	313.171
919.09	311.331
920.177	308.24
921.266	304.567
922.353	300.359
923.44	296.639
924.527	293.341
925.614	290.611
926.7	288.011
927.786	285.932
928.873	283.516
929.958	279.322
931.043	278.23
932.128	277.584
933.213	277.296
934.297	277.616
935.381	278.353
936.465	279.37
937.549	280.489
938.632	281.071
939.715	281.07
940.798	280.485
941.881	279.383
942.962	278.056
944.044	277.344
945.125	277.063
946.207	278.309
947.288	279.118
948.368	279.712
949.449	279.493
950.529	277.623
951.61	275.032
952.689	273.329
953.769	271.415
954.847	270.723
955.926	272.866
957.004	274.571
958.082	274.881
959.16	274.844
960.238	275.546
961.316	278.498
962.392	271.973
963.469	264.811
964.546	256.338
965.622	262.072
966.698	263.385
967.774	262.755
968.849	264.7
969.924	265.915
970.998	266.056
972.073	266.611
973.148	268.979
974.221	272.905
975.295	274.294
976.369	275.56
977.441	276.72
978.514	278.11
979.587	267.805
980.659	275.175
981.731	278.869
982.802	280.948
983.874	284.373
984.945	282.425
986.016	279.798
987.087	274.574
988.157	274.259
989.227	275.428
990.296	276.406
991.366	277.208
992.435	277.589
993.504	277.699
994.573	277.56
995.641	277.39
996.709	276.525
997.777	275.586
998.844	275.463
999.911	274.237
1000.98	275.375
1002.05	273.357
1003.11	271.444
1004.18	269.308
1005.24	267.335
1006.31	265.474
1007.37	263.755
1008.44	262.395
1009.5	261.208
1010.57	260.389
1011.63	260.11
1012.7	259.571
1013.76	257.447
1014.82	255.463
1015.89	253.608
1016.95	251.915
1018.01	250.388
1019.07	249.189
1020.13	248.144
1021.2	247.273
1022.26	246.199
1023.32	244.656
1024.38	243.679
1025.44	243.009
1026.5	242.946
1027.56	243.156
1028.62	243.561
1029.68	243.598
1030.74	242.152
1031.8	240.661
1032.85	239.623
1033.91	238.641
1034.97	238.288
1036.03	238.367
1037.09	238.495
1038.14	238.801
1039.2	239.112
1040.26	239.875
1041.31	241.01
1042.37	242.475
1043.42	244.289
1044.48	246.099
1045.53	246.971
1046.59	246.911
1047.64	246.593
1048.7	245.985
1049.75	244.726
1050.81	243.221
1051.86	241.855
1052.91	240.506
1053.97	239.56
1055.02	238.556
1056.07	237.555
1057.12	236.63
1058.17	235.787
1059.23	234.882
1060.28	234.401
1061.33	233.928
1062.38	233.576
1063.43	233.13
1064.48	232.639
1065.53	232.087
1066.58	231.038
1067.63	229.922
1068.68	228.794
1069.72	227.6
1070.77	227.04
1071.82	226.804
1072.87	225.159
1073.92	223.585
1074.96	223.793
1076.01	223.491
1077.06	223.202
1078.1	222.681
1079.15	221.715
1080.2	220.679
1081.24	219.713
1082.29	218.784
1083.33	218.069
1084.38	217.536
1085.42	217.137
1086.47	217.036
1087.51	217.223
1088.55	217.626
1089.6	218.351
1090.64	219.54
1091.68	220.295
1092.73	220.313
1093.77	219.265
1094.81	218.345
1095.85	217.751
1096.89	218.203
1097.93	218.822
1098.98	219.995
1100.02	220.186
1101.06	220.224
1102.1	220.279
1103.14	220.441
1104.18	220.84
1105.21	221.327
1106.25	221.886
1107.29	222.562
1108.33	223.17
1109.37	223.656
1110.41	223.948
1111.44	222.227
1112.48	220.174
1113.52	217.648
1114.56	214.622
1115.59	212.224
1116.63	210.649
1117.66	209.553
1118.7	208.917
1119.73	208.86
1120.77	209.013
1121.8	209.954
1122.84	210.414
1123.87	210.386
1124.91	210.531
1125.94	211.036
1126.97	211.711
1128.01	212.64
1129.04	212.638
1130.07	211.891
1131.11	210.843
1132.14	209.425
1133.17	208.4
1134.2	208.487
1135.23	209.487
1136.26	211.376
1137.29	213.655
1138.32	216.185
1139.35	218.727
1140.38	221.37
1141.41	224.106
1142.44	226.827
1143.47	229.245
1144.5	230.579
1145.53	231.161
1146.56	230.925
1147.58	230.908
1148.61	230.873
1149.64	231.196
1150.67	231.709
1151.69	232.456
1152.72	233.304
1153.75	234.434
1154.77	235.814
1155.8	237.145
1156.82	238.012
1157.85	235.761
1158.87	232.496
1159.9	228.359
1160.92	223.813
1161.95	218.628
1162.97	214.131
1163.99	210.236
1165.02	206.96
1166.04	204.938
1167.06	204.052
1168.08	205.858
1169.11	206.275
1170.13	207.804
1171.15	208.501
1172.17	207.646
1173.19	207.17
1174.21	206.677
1175.23	206.282
1176.25	206.094
1177.27	206.297
1178.29	206.913
1179.31	208.152
1180.33	210.047
1181.35	212.794
1182.37	214.621
1183.39	214.579
1184.4	214.479
1185.42	214.101
1186.44	213.698
1187.46	213.151
1188.47	212.532
1189.49	211.795
1190.51	210.843
1191.52	209.864
1192.54	208.369
1193.55	204.999
1194.57	201.639
1195.58	198.695
1196.6	196.247
1197.61	194.419
1198.63	193.343
1199.64	193.08
1200.65	193.156
1201.67	193.576
1202.68	193.412
1203.69	192.031
1204.7	190.673
1205.72	189.986
1206.73	189.982
1207.74	190.523
1208.75	191.389
1209.76	192.435
1210.77	193.573
1211.78	194.685
1212.79	196.276
1213.8	196.542
1214.81	196.428
1215.82	196.479
1216.83	197.814
1217.84	198.997
1218.85	199.689
1219.86	198.663
1220.87	196.929
1221.87	195.342
1222.88	193.598
1223.89	191.94
1224.9	190.265
1225.9	189.452
1226.91	189.022
1227.92	188.587
1228.92	188.082
1229.93	187.225
1230.93	186.199
1231.94	185.021
1232.94	183.847
1233.95	182.676
1234.95	181.507
1235.95	180.517
1236.96	179.601
1237.96	178.729
1238.96	177.8
1239.97	177.003
1240.97	176.253
1241.97	175.663
1242.97	175.038
1243.98	174.526
1244.98	174.004
1245.98	173.563
1246.98	173.155
1247.98	172.72
1248.98	172.32
1249.98	171.827
1250.98	170.871
1251.98	169.989
1252.98	169.366
1253.98	169.717
1254.98	170.346
1255.98	171.218
1256.97	172.166
1257.97	172.76
1258.97	173.65
1259.97	174.401
1260.97	174.612
1261.96	173.749
1262.96	173.117
1263.95	172.38
1264.95	171.711
1265.95	171.091
1266.94	170.447
1267.94	169.835
1268.93	169.298
1269.93	168.546
1270.92	166.922
1271.92	165.102
1272.91	163.167
1273.9	161.625
1274.9	161.158
1275.89	161.474
1276.88	162.293
1277.87	163.497
1278.87	164.931
1279.86	166.263
1280.85	167.633
1281.84	169.441
1282.83	171.491
1283.82	173.208
1284.81	174.181
1285.81	174.241
1286.8	172.664
1287.79	169.895
1288.77	167.576
1289.76	165.709
1290.75	164.193
1291.74	162.957
1292.73	162.058
1293.72	161.683
1294.71	161.573
1295.69	161.775
1296.68	162.23
1297.67	163.62
1298.65	164.311
1299.64	163.816
1300.63	163.044
1301.61	162.563
1302.6	162.224
1303.58	161.757
1304.57	161.344
1305.55	161.002
1306.54	160.727
1307.52	162.964
1308.51	161.061
1309.49	158.628
1310.48	156.409
1311.46	154.571
1312.44	153.219
1313.42	152.422
1314.41	152.174
1315.39	152.47
1316.37	153.212
1317.35	154.652
1318.33	156.496
1319.32	159.015
1320.3	161.809
1321.28	163.141
1322.26	164.763
1323.24	166.296
1324.22	168.062
1325.2	169.634
1326.18	170.79
1327.15	171.275
1328.13	170.772
1329.11	169.635
1330.09	167.53
1331.07	163.749
1332.05	160.069
1333.02	156.697
1334	153.979
1334.98	151.684
1335.95	149.77
1336.93	148.375
1337.91	147.416
1338.88	147.38
1339.86	147.597
1340.83	147.988
1341.81	148.541
1342.78	148.253
1343.76	147.608
1344.73	147.586
1345.7	148.258
1346.68	148.831
1347.65	148.947
1348.62	148.966
1349.6	149.124
1350.57	149.653
1351.54	149.078
1352.51	146.933
1353.49	144.684
1354.46	142.733
1355.43	140.985
1356.4	139.606
1357.37	138.632
1358.34	138.645
1359.31	139.456
1360.28	139.707
1361.25	139.53
1362.22	139.187
1363.19	138.089
1364.16	137.991
1365.12	138
1366.09	138.141
1367.06	137.733
1368.03	137.327
1369	136.946
1369.96	136.573
1370.93	136.168
1371.9	135.973
1372.86	135.672
1373.83	135.72
1374.79	135.956
1375.76	136.353
1376.73	136.73
1377.69	137.152
1378.66	136.724
1379.62	136.497
1380.58	136.453
1381.55	136.634
1382.51	136.958
1383.48	137.52
1384.44	138.176
1385.4	139.171
1386.36	140.31
1387.33	140.507
1388.29	139.992
1389.25	139.361
1390.21	138.594
1391.17	137.762
1392.13	137.036
1393.09	136.273
1394.06	135.519
1395.01	134.781
1395.97	134.362
1396.93	133.843
1397.89	133.367
1398.85	132.84
1399.81	132.288
1400.77	131.766
1401.73	131.324
1402.69	130.73
1403.64	130.101
1404.6	129.507
1405.56	128.875
1406.52	128.246
1407.47	127.652
1408.43	127.087
1409.39	126.55
1410.34	126.04
1411.3	125.611
1412.25	125.207
1413.21	125.004
1414.16	124.935
1415.12	124.838
1416.07	124.813
1417.03	124.636
1417.98	124.462
1418.93	124.344
1419.89	124.254
1420.84	124.259
1421.79	124.279
1422.74	124.266
1423.7	124.502
1424.65	124.917
1425.6	125.399
1426.55	126.398
1427.5	127.302
1428.45	128.301
1429.4	129.343
1430.35	130.451
1431.3	131.663
1432.25	132.893
1433.2	134.078
1434.15	134.866
1435.1	135.084
1436.05	135.211
1437	135.275
1437.95	135.189
1438.89	135.075
1439.84	134.609
1440.79	133.391
1441.74	132.305
1442.68	131.419
1443.63	130.066
1444.58	128.587
1445.52	127.099
1446.47	125.632
1447.41	124.197
1448.36	122.954
1449.3	121.816
1450.25	120.757
1451.19	119.854
1452.14	119.103
1453.08	118.422
1454.03	117.983
1454.97	117.581
1455.91	117.253
1456.85	117.037
1457.8	116.888
1458.74	116.848
1459.68	116.928
1460.62	117.094
1461.57	116.27
1462.51	115.431
1463.45	114.863
1464.39	114.49
1465.33	114.296
1466.27	114.284
1467.21	114.918
1468.15	115.73
1469.09	116.632
1470.03	117.558
1470.97	118.465
1471.9	118.156
1472.84	117.818
1473.78	117.475
1474.72	117.081
1475.66	116.717
1476.59	116.39
1477.53	114.935
1478.47	113.933
1479.4	113.3
1480.34	112.948
1481.28	112.914
1482.21	113.667
1483.15	114.644
1484.08	115.742
1485.02	116.924
1485.95	118.199
1486.89	118.938
1487.82	119.514
1488.76	119.114
1489.69	118.872
1490.62	118.643
1491.56	118.196
1492.49	117.547
1493.42	116.788
1494.35	115.975
1495.29	115.17
1496.22	114.333
1497.15	113.656
1498.08	112.82
1499.01	112.162
1499.94	111.684
1500.87	111.409
1501.8	111.206
1502.73	111.193
1503.66	111.258
1504.59	111.745
1505.52	112.411
1506.45	113.307
1507.38	114.469
1508.31	115.977
1509.23	117.722
1510.16	119.548
1511.09	121.575
1512.02	123.781
1512.94	126.168
1513.87	128.731
1514.8	131.447
1515.72	134.348
1516.65	137.391
1517.58	140.42
1518.5	143.38
1519.43	146.07
1520.35	148.695
1521.28	151.147
1522.2	153.329
1523.12	154.481
1524.05	154.695
1524.97	154.547
1525.9	153.951
1526.82	153.022
1527.74	151.654
1528.66	149.899
1529.59	147.52
1530.51	144.784
1531.43	141.782
1532.35	138.583
1533.27	135.197
1534.19	132.374
1535.11	129.455
1536.04	126.247
1536.96	124.019
1537.88	122.671
1538.8	121.642
1539.71	120.836
1540.63	120.379
1541.55	119.298
1542.47	117.805
1543.39	116.428
1544.31	115.159
1545.23	114.044
1546.14	112.605
1547.06	113.173
1547.98	116.516
1548.89	118.429
1549.81	117.89
1550.73	116.113
1551.64	114.636
1552.56	113.094
1553.47	112.197
1554.39	111.454
1555.31	110.744
1556.22	110.05
1557.13	109.477
1558.05	108.647
1558.96	107.776
1559.88	106.923
1560.79	106.311
1561.7	105.786
1562.62	105.413
1563.53	105.117
1564.44	104.808
1565.35	104.417
1566.27	103.939
1567.18	103.407
1568.09	102.749
1569	102.142
1569.91	101.578
1570.82	100.796
1571.73	100.169
1572.64	99.4926
1573.55	98.7891
1574.46	98.0898
1575.37	97.369
1576.28	96.733
1577.19	96.1325
1578.1	95.4965
1579	95.2002
1579.91	95.4533
1580.82	95.9115
1581.73	96.5051
1582.63	97.4119
1583.54	97.9251
1584.45	98.1933
1585.35	98.6207
1586.26	99.2115
1587.17	99.1599
1588.07	98.8164
1588.98	98.2707
1589.88	97.8033
1590.79	97.6679
1591.69	97.8222
1592.6	97.7909
1593.5	98.1125
1594.4	98.6173
1595.31	99.1969
1596.21	99.7086
1597.11	100.062
1598.02	100.332
1598.92	100.654
1599.82	100.88
1600.72	100.942
1601.63	100.981
1602.53	101.065
1603.43	101.372
1604.33	101.758
1605.23	102.045
1606.13	102.414
1607.03	102.519
1607.93	102.464
1608.83	102.451
1609.73	102.298
1610.63	102.157
1611.53	101.686
1612.43	101.06
1613.32	100.046
1614.22	98.9729
1615.12	97.9924
1616.02	96.8924
1616.92	96.0404
1617.81	95.595
1618.71	95.0616
1619.61	94.6456
1620.5	94.621
1621.4	94.4564
1622.29	94.4002
1623.19	94.7159
1624.08	95.2155
1624.98	95.6016
1625.87	95.9531
1626.77	96.2837
1627.66	96.7526
1628.56	97.499
1629.45	98.2231
1630.34	98.8989
1631.24	99.6703
1632.13	100.31
1632.84	100.759
1633.77	100.944
1634.7	100.767
1635.63	100.531
1636.56	100.373
1637.49	99.5509
1638.42	98.5257
1639.34	97.6945
1640.27	96.8975
1641.2	96.2485
1642.13	95.9518
1643.05	95.2885
1643.98	94.6295
1644.91	93.9963
1645.83	93.4893
1646.76	93.5502
1647.68	94.3225
1648.61	93.9382
1649.54	93.7145
1650.46	93.259
1651.39	93.0378
1652.31	93.2966
1653.23	93.1133
1654.16	92.7438
1655.08	92.7373
1656.01	93.077
1656.93	92.822
1657.85	92.4572
1658.78	92.155
1659.7	92.3162
1660.62	92.4359
1661.54	92.6371
1662.47	93.1794
1663.39	93.1034
1664.31	92.6859
1665.23	92.844
1666.15	93.119
1667.07	93.3558
1667.99	92.9936
1668.92	92.6695
1669.84	92.4581
1670.76	92.4557
1671.68	93.108
1672.6	93.0005
1673.52	91.6702
1674.43	90.8162
1675.35	90.0998
1676.27	89.7902
1677.19	89.4077
1678.11	89.2888
1679.03	88.8263
1679.95	88.5235
1680.86	88.2325
1681.78	87.5875
1682.7	87.3713
1683.61	86.9884
1684.53	86.6698
1685.45	85.3982
1686.36	85.0351
1687.28	84.9853
1688.2	85.5113
1689.11	86.4519
1690.03	86.9073
1690.94	86.9164
1691.86	87.462
1692.77	87.385
1693.69	87.3256
1694.6	86.7732
1695.52	85.2575
1696.43	84.0375
1697.34	83.0519
1698.26	81.4842
1699.17	80.7562
1700.08	81.3039
1700.99	81.7374
1701.91	81.6943
1702.82	82.6342
1703.73	82.5993
1704.64	82.3737
1705.55	82.0005
1706.47	81.7122
1707.38	81.2691
1708.29	80.9587
1709.2	80.8793
1710.11	80.7751
1711.02	80.5112
1711.93	80.8834
1712.84	81.0232
1713.75	81.0048
1714.66	80.7761
1715.57	80.7265
1716.48	80.483
1717.39	80.4919
1718.29	80.5795
1719.2	80.2829
1720.11	79.6334
1721.02	78.9363
1721.93	78.1217
1722.83	77.4087
1723.74	76.6834
1724.65	76.2477
1725.55	76.1311
1726.46	76.3587
1727.37	77.1884
1728.27	77.2945
1729.18	77.3533
1730.08	77.5477
1730.99	78.149
1731.89	78.2124
1732.8	78.3891
1733.7	78.7295
1734.61	78.9433
1735.51	78.8843
1736.42	78.4992
1737.32	78.113
1738.22	77.6321
1739.13	76.8636
1740.03	76.0448
1740.93	75.442
1741.83	74.7208
1742.74	73.9798
1743.64	73.7315
1744.54	73.7887
1745.44	73.4106
1746.34	73.6809
1747.24	74.4489
1748.15	75.6981
1749.05	77.2364
1749.95	78.1448
1750.85	78.9738
1751.75	79.7779
1752.65	80.3469
1753.55	79.4536
1754.45	78.6046
1755.35	77.8982
1756.25	77.6346
1757.14	77.3113
1758.04	77.3582
1758.94	77.3791
1759.84	77.1672
1760.74	76.9875
1761.63	76.3279
1762.53	75.5729
1763.43	74.515
1764.33	73.9054
1765.22	73.5342
1766.12	73.3636
1767.02	73.3574
1767.91	73.1857
1768.81	72.9559
1769.7	72.8955
1770.6	73.1312
1771.49	73.6427
1772.39	74.4948
1773.28	74.6379
1774.18	75.0533
1775.07	74.6825
1775.97	74.1952
1776.86	73.2119
1777.75	72.6315
1778.65	73.4371
1779.54	74.6631
1780.43	75.205
1781.33	74.5753
1782.22	74.4406
1783.11	74.3708
1784	74.1908
1784.89	73.0037
1785.79	69.0785
1786.68	69.4015
1787.57	71.626
1788.46	72.6101
1789.35	72.6195
1790.24	72.7169
1791.13	72.7299
1792.02	73.4984
1792.91	73.7421
1793.8	73.8735
1794.69	73.5382
1795.58	72.3519
1796.47	71.2399
1797.36	69.6011
1798.25	67.6164
1799.13	65.6815
