Acq. time (s)=	15
Accumulations=	2
Range (cm-¹)=	600...1800
Windows=	2
Autofocus=	Off
AutoExposure=	On
Spike filter=	Multiple accum.
Delay time (s)=	1
Binning=	1
Readout mode=	Signal
DeNoise=	Standard
ICS correction=	Off
Dark correction=	Off
Inst. Process=	Off
Instrument=	XploRA
Detector=	Syncerity
Objective=	x20LWD
Grating=	1200 gr/mm
Filter=	25%
Laser (nm)=	785 
Slit (µm)=	100 
Hole (µm)=	300 
Laser pol=	None
Raman pol=	None
Output=	Camera
StageXY=	Marzhauser
StageZ=	
X (µm)=	3665.8
Y (µm)=	-3193.3
Project=	
Sample=	
Site=	
Title=	To8-T
Remark=	
Date=	14.10.2022 23:08
Acquired=	14.10.2022 23:08:08
600.787	504.917
601.956	512.579
603.126	519.293
604.294	528.217
605.463	536.92
606.631	544.235
607.8	551.677
608.967	557.812
610.135	562.68
611.302	568.014
612.468	572.52
613.635	575.623
614.802	578.802
615.968	581.488
617.133	583.674
618.299	585.117
619.464	586.806
620.629	588.147
621.793	589.47
622.958	590.657
624.121	591.493
625.285	591.82
626.448	592.229
627.612	593.359
628.774	594.645
629.937	595.245
631.099	595.628
632.261	595.933
633.423	596.16
634.584	596.817
635.745	597.498
636.906	597.668
638.066	598.217
639.227	598.832
640.386	599.046
641.546	599.203
642.705	599.446
643.864	599.016
645.023	597.214
646.181	596.861
647.339	597.155
648.497	597.693
649.655	598.289
650.812	599.702
651.969	600.787
653.125	601.159
654.282	602.069
655.438	603.266
656.593	604.858
657.75	605.363
658.905	604.723
660.059	603.294
661.214	601.328
662.368	600.569
663.522	600.427
664.676	599.159
665.83	598.037
666.983	596.407
668.136	595.226
669.288	594.175
670.441	593.417
671.592	593.177
672.744	593.073
673.895	594.66
675.046	595.058
676.197	594.552
677.348	594.418
678.498	595.145
679.648	596.688
680.798	598.141
681.947	599.833
683.096	601.612
684.245	604.53
685.394	606.284
686.542	606.49
687.69	605.862
688.837	604.923
689.984	604.453
691.132	603.538
692.278	602.355
693.425	602.157
694.571	601.598
695.717	599.231
696.863	597.159
698.008	594.408
699.152	591.138
700.298	589.46
701.442	589.297
702.586	589.586
703.73	590.068
704.873	589.531
706.017	589.437
707.16	589.18
708.302	588.631
709.445	587.739
710.586	587.035
711.729	585.927
712.87	583.988
714.012	581.885
715.152	579.054
716.293	577.984
717.433	577.951
718.573	577.685
719.713	578.422
720.853	578.388
721.991	578.258
723.131	578.398
724.269	579.011
725.408	579.204
726.545	579.055
727.683	579.457
728.821	580.443
729.958	581.614
731.095	583.139
732.231	583.535
733.368	583.571
734.503	583.657
735.639	584.339
736.775	586.323
737.91	588.209
739.045	590.481
740.179	593.24
741.313	594.462
742.447	595.252
743.581	595.206
744.714	594.985
745.847	593.831
746.98	592.705
748.113	590.82
749.245	589.938
750.377	588.839
751.509	586.689
752.64	583.453
753.771	579.199
754.902	574.57
756.033	570.287
757.163	566.131
758.293	562.249
759.423	558.294
760.551	554.42
761.681	550.403
762.81	547.333
763.938	544.902
765.066	543.038
766.194	542.239
767.321	543.882
768.449	542.497
769.576	541.947
770.703	540.417
771.83	539.365
772.955	537.822
774.081	536.621
775.207	534.497
776.332	532.424
777.457	529.584
778.582	526.717
779.707	523.48
780.831	521.483
781.954	517.93
783.078	516.045
784.201	515.31
785.324	515.935
786.447	516.993
787.569	518.923
788.691	520.864
789.813	520.777
790.935	519.439
792.056	518.326
793.177	514.118
794.297	511.984
795.418	509.227
796.539	506.262
797.658	503.321
798.777	500.774
799.897	498.722
801.016	495.783
802.134	494.062
803.253	493.566
804.371	492.526
805.489	493.717
806.606	495.161
807.723	495.536
808.84	496.197
809.957	495.794
811.073	494.179
812.19	492.588
813.305	490.033
814.421	489.01
815.536	487.748
816.651	486.597
817.766	485.14
818.88	483.717
819.994	483.295
821.108	483.482
822.221	484.614
823.335	484.764
824.448	484.961
825.56	485.062
826.673	485.366
827.784	484.993
828.897	484.422
830.008	483.734
831.119	482.198
832.23	480.631
833.341	479.731
834.451	479.182
835.561	478.724
836.671	478.461
837.78	478.764
838.89	478.712
839.998	478.653
841.108	478.068
842.216	477.904
843.324	477.6
844.431	476.218
845.539	474.627
846.646	473.188
847.753	471.041
848.859	468.365
849.966	465.763
851.071	462.91
852.178	460.096
853.283	458.275
854.388	457.31
855.494	456.304
856.598	454.772
857.703	453.146
858.806	452.495
859.91	452.215
861.014	451.844
862.116	451.559
863.22	452.185
864.322	452.331
865.425	452.466
866.527	452.191
867.628	451.76
868.73	450.774
869.831	449.384
870.932	447.672
872.032	447.48
873.133	447.567
874.233	447.716
875.333	447.859
876.432	446.932
877.532	445.431
878.631	444.171
879.729	443.277
880.828	442.714
881.926	441.755
883.023	440.45
884.121	439.829
885.218	439.471
886.315	438.9
887.412	438.199
888.508	436.947
889.604	435.475
890.699	434.562
891.795	433.428
892.89	433.37
893.985	433.155
895.08	432.333
896.174	430.398
897.268	428.548
898.362	427.717
899.456	428.26
900.549	428.524
901.642	429.462
902.734	430.506
903.827	431.961
904.919	434.365
906.011	436.264
907.102	439.01
908.193	440.997
909.284	444.045
910.375	446.427
911.465	447.947
912.555	448.363
913.645	447.883
914.734	446.361
915.824	444.261
916.913	441.146
918.001	437.44
919.09	434.283
920.177	431.214
921.266	427.92
922.353	424.935
923.44	421.975
924.527	419.398
925.614	416.472
926.7	414.056
927.786	411.196
928.873	409.228
929.958	407.278
931.043	406.095
932.128	404.659
933.213	403.173
934.297	401.958
935.381	401.173
936.465	400.457
937.549	399.266
938.632	398.141
939.715	397.129
940.798	395.93
941.881	394.999
942.962	394.166
944.044	392.78
945.125	392.272
946.207	392.025
947.288	391.119
948.368	390.569
949.449	389.943
950.529	388.675
951.61	387.905
952.689	386.492
953.769	385.256
954.847	384.926
955.926	385.341
957.004	386.489
958.082	386.479
959.16	384.807
960.238	382.678
961.316	380.338
962.392	377.669
963.469	375.232
964.546	374.76
965.622	374.915
966.698	375.972
967.774	376.05
968.849	375.917
969.924	375.582
970.998	374.924
972.073	374.34
973.148	374.741
974.221	375.633
975.295	376.485
976.369	376.707
977.441	377.471
978.514	378.863
979.587	379.399
980.659	379.869
981.731	380.502
982.802	381.831
983.874	383.442
984.945	385.229
986.016	387.441
987.087	388.545
988.157	389.418
989.227	390.156
990.296	390.382
991.366	384.592
992.435	388.334
993.504	388.721
994.573	389.22
995.641	389.247
996.709	388.135
997.777	386.584
998.844	385.316
999.911	381.82
1000.98	380.39
1002.05	378.126
1003.11	379.214
1004.18	378.39
1005.24	377.739
1006.31	375.447
1007.37	373.184
1008.44	370.606
1009.5	367.986
1010.57	363.88
1011.63	360.346
1012.7	357.183
1013.76	353.712
1014.82	350.645
1015.89	349.193
1016.95	348.013
1018.01	347.623
1019.07	347.483
1020.13	349.003
1021.2	347.572
1022.26	346.348
1023.32	345.674
1024.38	345.11
1025.44	343.897
1026.5	343.023
1027.56	342.13
1028.62	341.845
1029.68	341.532
1030.74	340.711
1031.8	339.809
1032.85	338.513
1033.91	337.595
1034.97	336.339
1036.03	335.225
1037.09	334.781
1038.14	334.14
1039.2	333.413
1040.26	331.367
1041.31	330.69
1042.37	330.067
1043.42	329.839
1044.48	329.246
1045.53	328.981
1046.59	329.497
1047.64	330.892
1048.7	331.926
1049.75	333.113
1050.81	333.493
1051.86	333.083
1052.91	332.8
1053.97	331.829
1055.02	332.057
1056.07	332.089
1057.12	332.805
1058.17	333.256
1059.23	333.499
1060.28	333.416
1061.33	333.053
1062.38	331.638
1063.43	329.798
1064.48	328.972
1065.53	328.431
1066.58	327.77
1067.63	326.444
1068.68	325.909
1069.72	325.264
1070.77	324.879
1071.82	324.173
1072.87	323.249
1073.92	322.498
1074.96	321.255
1076.01	320.505
1077.06	318.927
1078.1	317.598
1079.15	317.119
1080.2	315.876
1081.24	314.134
1082.29	313.315
1083.33	312.116
1084.38	311.235
1085.42	310.751
1086.47	310.283
1087.51	309.662
1088.55	308.956
1089.6	308.552
1090.64	307.9
1091.68	307.795
1092.73	306.576
1093.77	306.107
1094.81	305.633
1095.85	305.683
1096.89	306.508
1097.93	307.172
1098.98	307.831
1100.02	308.352
1101.06	308.344
1102.1	309.119
1103.14	309.981
1104.18	311.076
1105.21	312.417
1106.25	313.413
1107.29	314.082
1108.33	314.594
1109.37	315.051
1110.41	315.767
1111.44	315.921
1112.48	315.032
1113.52	313.489
1114.56	311.863
1115.59	310.209
1116.63	308.61
1117.66	306.848
1118.7	304.08
1119.73	300.897
1120.77	298.114
1121.8	295.396
1122.84	294.002
1123.87	293.79
1124.91	293.815
1125.94	294.79
1126.97	295.044
1128.01	294.98
1129.04	295.213
1130.07	295.783
1131.11	296.823
1132.14	297.399
1133.17	298.695
1134.2	300.516
1135.23	301.316
1136.26	301.59
1137.29	302.522
1138.32	303.105
1139.35	304.483
1140.38	306.636
1141.41	309.704
1142.44	311.991
1143.47	314.254
1144.5	316.462
1145.53	318.471
1146.56	320.322
1147.58	321.963
1148.61	324.142
1149.64	326.292
1150.67	328.799
1151.69	331.939
1152.72	334.12
1153.75	335.947
1154.77	336.728
1155.8	335.712
1156.82	334.201
1157.85	331.713
1158.87	329.314
1159.9	325.837
1160.92	321.827
1161.95	317.503
1162.97	311.781
1163.99	306.138
1165.02	301.601
1166.04	297.132
1167.06	293.308
1168.08	290.385
1169.11	288.03
1170.13	287.258
1171.15	285.572
1172.17	284.718
1173.19	282.702
1174.21	280.413
1175.23	280.798
1176.25	281.02
1177.27	283.696
1178.29	286.542
1179.31	291.52
1180.33	300.33
1181.35	306.523
1182.37	312.008
1183.39	311.108
1184.4	311.367
1185.42	311.737
1186.44	311.345
1187.46	309.063
1188.47	305.353
1189.49	301.049
1190.51	296.344
1191.52	291.677
1192.54	286.716
1193.55	281.635
1194.57	276.644
1195.58	272.711
1196.6	268.607
1197.61	268.363
1198.63	266.072
1199.64	264.41
1200.65	263.301
1201.67	263.177
1202.68	263.749
1203.69	264.495
1204.7	265.405
1205.72	266.579
1206.73	267.418
1207.74	268.624
1208.75	270.103
1209.76	271.117
1210.77	271.881
1211.78	272.439
1212.79	272.556
1213.8	272.539
1214.81	272.492
1215.82	272.019
1216.83	271.841
1217.84	271.633
1218.85	271.62
1219.86	271.398
1220.87	271.156
1221.87	272.034
1222.88	272.211
1223.89	271.955
1224.9	271.887
1225.9	270.757
1226.91	269.62
1227.92	268.163
1228.92	266.85
1229.93	264.636
1230.93	262.596
1231.94	260.236
1232.94	256.992
1233.95	254.062
1234.95	251.376
1235.95	249.179
1236.96	247.771
1237.96	247.1
1238.96	246.921
1239.97	246.786
1240.97	246.64
1241.97	247.043
1242.97	247.022
1243.98	246.921
1244.98	246.026
1245.98	244.764
1246.98	243.557
1247.98	242.27
1248.98	241.018
1249.98	239.749
1250.98	238.129
1251.98	236.175
1252.98	235.52
1253.98	234.511
1254.98	234.414
1255.98	234.232
1256.97	234.758
1257.97	236.219
1258.97	238.113
1259.97	240.106
1260.97	240.903
1261.96	240.747
1262.96	240.127
1263.95	239.2
1264.95	238.383
1265.95	237.68
1266.94	236.977
1267.94	236.813
1268.93	236.166
1269.93	235.658
1270.92	235.155
1271.92	234.863
1272.91	234.667
1273.9	234.71
1274.9	234.907
1275.89	235.129
1276.88	235.507
1277.87	235.2
1278.87	235.689
1279.86	236.643
1280.85	239.784
1281.84	239.275
1282.83	238.392
1283.82	236.377
1284.81	233.673
1285.81	229.23
1286.8	229.11
1287.79	230.39
1288.77	233.901
1289.76	235.931
1290.75	236.755
1291.74	235.896
1292.73	235.624
1293.72	231.772
1294.71	229.234
1295.69	227.81
1296.68	227.479
1297.67	226.817
1298.65	226.46
1299.64	225.974
1300.63	226.274
1301.61	228.486
1302.6	228.925
1303.58	228.73
1304.57	228.333
1305.55	227.811
1306.54	227.181
1307.52	226.423
1308.51	225.528
1309.49	224.43
1310.48	223.136
1311.46	221.609
1312.44	220.093
1313.42	216.046
1314.41	216.614
1315.39	218.058
1316.37	217.309
1317.35	216.51
1318.33	214.62
1319.32	215.496
1320.3	219.297
1321.28	224.048
1322.26	228.785
1323.24	234.158
1324.22	240.661
1325.2	246.46
1326.18	249.116
1327.15	250.743
1328.13	243.243
1329.11	235.961
1330.09	227.505
1331.07	222.931
1332.05	223.19
1333.02	223.36
1334	220.475
1334.98	215.931
1335.95	216.349
1336.93	214.945
1337.91	213.497
1338.88	212.07
1339.86	210.731
1340.83	209.854
1341.81	209.258
1342.78	208.567
1343.76	208.22
1344.73	207.763
1345.7	207.201
1346.68	206.846
1347.65	206.775
1348.62	206.341
1349.6	206.093
1350.57	206.551
1351.54	206.729
1352.51	206.759
1353.49	206.474
1354.46	205.91
1355.43	205.076
1356.4	203.735
1357.37	202.451
1358.34	201.245
1359.31	200.506
1360.28	199.578
1361.25	198.186
1362.22	196.213
1363.19	194.488
1364.16	193.724
1365.12	192.571
1366.09	191.364
1367.06	190.522
1368.03	189.811
1369	189.65
1369.96	189.579
1370.93	190.771
1371.9	190.469
1372.86	190.266
1373.83	190.044
1374.79	189.607
1375.76	188.744
1376.73	188.553
1377.69	188.289
1378.66	188.385
1379.62	187.782
1380.58	187.631
1381.55	187.788
1382.51	188.449
1383.48	188.566
1384.44	189.32
1385.4	190.147
1386.36	189.882
1387.33	190.002
1388.29	190.279
1389.25	190.906
1390.21	190.545
1391.17	190.114
1392.13	190.389
1393.09	190.06
1394.06	188.637
1395.01	186.658
1395.97	185.176
1396.93	183.613
1397.89	182.156
1398.85	180.983
1399.81	179.882
1400.77	179.803
1401.73	180.031
1402.69	180.524
1403.64	181.067
1404.6	181.43
1405.56	180.082
1406.52	179.271
1407.47	178.137
1408.43	177.338
1409.39	176.38
1410.34	176.624
1411.3	176.221
1412.25	176.001
1413.21	175.012
1414.16	173.781
1415.12	172.715
1416.07	171.578
1417.03	171.265
1417.98	170.289
1418.93	170.847
1419.89	172.212
1420.84	173.446
1421.79	175.945
1422.74	176.574
1423.7	176.705
1424.65	176.945
1425.6	177.024
1426.55	176.206
1427.5	177.456
1428.45	178.262
1429.4	178.673
1430.35	179.13
1431.3	179.578
1432.25	180.073
1433.2	180.529
1434.15	181.022
1435.1	181.259
1436.05	181.783
1437	182.319
1437.95	182.792
1438.89	183.22
1439.84	183.504
1440.79	183.633
1441.74	182.729
1442.68	181.353
1443.63	179.727
1444.58	178.472
1445.52	178.416
1446.47	180.095
1447.41	179.22
1448.36	178.472
1449.3	177.249
1450.25	175.639
1451.19	173.987
1452.14	172.277
1453.08	170.474
1454.03	169.553
1454.97	168.806
1455.91	168.224
1456.85	167.08
1457.8	165.597
1458.74	163.753
1459.68	162.587
1460.62	161.833
1461.57	161.706
1462.51	161.421
1463.45	161.648
1464.39	162.037
1465.33	161.874
1466.27	161.418
1467.21	162.129
1468.15	162.756
1469.09	162.531
1470.03	162.326
1470.97	162.137
1471.9	162.033
1472.84	161.752
1473.78	161.535
1474.72	160.937
1475.66	160.063
1476.59	160.228
1477.53	160.169
1478.47	160.197
1479.4	160.046
1480.34	160.213
1481.28	160.532
1482.21	161.132
1483.15	162.011
1484.08	162.336
1485.02	163.081
1485.95	164.134
1486.89	165.063
1487.82	165.325
1488.76	165.368
1489.69	165.68
1490.62	166.272
1491.56	166.404
1492.49	165.351
1493.42	163.253
1494.35	160.699
1495.29	159.453
1496.22	159.012
1497.15	158.855
1498.08	158.197
1499.01	156.701
1499.94	155.159
1500.87	154.189
1501.8	153.262
1502.73	152.398
1503.66	152.514
1504.59	153.458
1505.52	154.655
1506.45	156.918
1507.38	159.259
1508.31	161.866
1509.23	164.372
1510.16	166.322
1511.09	168.19
1512.02	170.718
1512.94	173.564
1513.87	176.669
1514.8	179.665
1515.72	182.912
1516.65	186.683
1517.58	190.808
1518.5	194.558
1519.43	198.398
1520.35	201.958
1521.28	205.789
1522.2	209.145
1523.12	212.474
1524.05	215.164
1524.97	217.414
1525.9	218.393
1526.82	218.571
1527.74	217.631
1528.66	215.901
1529.59	213.389
1530.51	210.197
1531.43	206.558
1532.35	203.247
1533.27	199.396
1534.19	195.591
1535.11	191.423
1536.04	186.868
1536.96	181.967
1537.88	177.003
1538.8	171.839
1539.71	167.147
1540.63	163.125
1541.55	160.272
1542.47	157.967
1543.39	156.321
1544.31	155.488
1545.23	155.083
1546.14	154.941
1547.06	154.765
1547.98	154.541
1548.89	153.946
1549.81	153.848
1550.73	154.49
1551.64	154.712
1552.56	154.116
1553.47	153.385
1554.39	152.467
1555.31	151.222
1556.22	149.779
1557.13	148.335
1558.05	147.324
1558.96	146.691
1559.88	145.888
1560.79	144.855
1561.7	143.953
1562.62	142.979
1563.53	141.744
1564.44	140.535
1565.35	139.38
1566.27	138.24
1567.18	137.244
1568.09	136.207
1569	135.009
1569.91	133.745
1570.82	132.605
1571.73	131.732
1572.64	131.033
1573.55	130.441
1574.46	129.679
1575.37	128.749
1576.28	128.678
1577.19	128.888
1578.1	129.213
1579	129.554
1579.91	129.84
1580.82	130.144
1581.73	130.241
1582.63	129.997
1583.54	129.546
1584.45	128.965
1585.35	128.199
1586.26	127.487
1587.17	126.973
1588.07	126.826
1588.98	126.868
1589.88	127.009
1590.79	127.229
1591.69	127.379
1592.6	127.692
1593.5	127.959
1594.4	128.214
1595.31	128.261
1596.21	128.311
1597.11	128.344
1598.02	128.368
1598.92	128.455
1599.82	128.571
1600.72	128.708
1601.63	128.837
1602.53	128.936
1603.43	129.016
1604.33	129.14
1605.23	129.171
1606.13	129.012
1607.03	128.927
1607.93	128.721
1608.83	128.376
1609.73	127.717
1610.63	127.081
1611.53	126.622
1612.43	126.412
1613.32	126.335
1614.22	125.877
1615.12	125.314
1616.02	125.123
1616.92	125.242
1617.81	125.524
1618.71	125.517
1619.61	125.492
1620.5	125.382
1621.4	125.28
1622.29	125.192
1623.19	125.092
1624.08	125.05
1624.98	124.958
1625.87	124.727
1626.77	124.398
1627.66	123.975
1628.56	123.472
1629.45	122.91
1630.34	122.202
1631.24	121.39
1632.13	120.813
1632.84	120.307
1633.77	119.512
1634.7	118.768
1635.63	118.314
1636.56	117.761
1637.49	117.205
1638.42	116.721
1639.34	116.331
1640.27	116.053
1641.2	115.885
1642.13	115.734
1643.05	116.053
1643.98	116.496
1644.91	117.101
1645.83	117.62
1646.76	117.384
1647.68	117.379
1648.61	117.436
1649.54	117.455
1650.46	116.628
1651.39	115.601
1652.31	114.673
1653.23	113.867
1654.16	113.154
1655.08	112.813
1656.01	112.617
1656.93	112.613
1657.85	112.87
1658.78	113.342
1659.7	114.088
1660.62	114.735
1661.54	113.939
1662.47	113.565
1663.39	113.187
1664.31	112.896
1665.23	112.617
1666.15	112.661
1667.07	112.892
1667.99	113.07
1668.92	113.288
1669.84	113.468
1670.76	113.608
1671.68	113.441
1672.6	113.389
1673.52	113.362
1674.43	113.265
1675.35	113.084
1676.27	112.886
1677.19	112.4
1678.11	111.956
1679.03	111.623
1679.95	111.41
1680.86	110.959
1681.78	110.401
1682.7	109.844
1683.61	109.312
1684.53	108.849
1685.45	108.402
1686.36	108.032
1687.28	107.732
1688.2	107.858
1689.11	107.957
1690.03	108.621
1690.94	108.632
1691.86	108.172
1692.77	107.509
1693.69	106.764
1694.6	106.035
1695.52	105.37
1696.43	104.769
1697.34	104.255
1698.26	104.16
1699.17	104.231
1700.08	104.574
1700.99	104.756
1701.91	104.24
1702.82	103.789
1703.73	103.618
1704.64	103.571
1705.55	103.588
1706.47	103.658
1707.38	103.699
1708.29	103.765
1709.2	103.774
1710.11	103.185
1711.02	102.622
1711.93	102.054
1712.84	101.552
1713.75	101.038
1714.66	100.603
1715.57	100.224
1716.48	100.308
1717.39	100.201
1718.29	100.271
1719.2	100.371
1720.11	100.525
1721.02	100.684
1721.93	100.777
1722.83	100.738
1723.74	100.674
1724.65	100.515
1725.55	100.494
1726.46	100.189
1727.37	99.8752
1728.27	99.3207
1729.18	98.8415
1730.08	98.4495
1730.99	97.8032
1731.89	97.7609
1732.8	97.779
1733.7	98.0648
1734.61	98.3443
1735.51	98.6588
1736.42	98.5369
1737.32	97.9671
1738.22	97.3984
1739.13	96.8196
1740.03	96.2358
1740.93	95.6693
1741.83	95.1003
1742.74	94.5861
1743.64	93.9913
1744.54	93.5572
1745.44	93.1882
1746.34	92.9326
1747.24	92.7059
1748.15	92.576
1749.05	92.4661
1749.95	92.603
1750.85	92.6612
1751.75	92.8401
1752.65	92.859
1753.55	92.9381
1754.45	93.0008
1755.35	92.7705
1756.25	92.811
1757.14	92.9663
1758.04	93.2776
1758.94	93.9
1759.84	95.0118
1760.74	95.8196
1761.63	96.3585
1762.53	96.5707
1763.43	96.495
1764.33	96.2387
1765.22	95.9547
1766.12	95.6571
1767.02	95.2801
1767.91	95.1876
1768.81	94.8056
1769.7	94.0638
1770.6	93.2077
1771.49	92.4797
1772.39	91.7915
1773.28	91.289
1774.18	90.7829
1775.07	89.9915
1775.97	89.2011
1776.86	88.4856
1777.75	87.7906
1778.65	87.164
1779.54	86.6249
1780.43	86.0765
1781.33	85.6979
1782.22	85.4804
1783.11	85.3674
1784	85.4031
1784.89	85.6697
1785.79	85.8944
1786.68	86.2518
1787.57	86.7028
1788.46	87.2344
1789.35	87.8879
1790.24	88.5513
1791.13	88.7835
1792.02	88.6365
1792.91	88.6744
1793.8	88.7131
1794.69	89.1344
1795.58	89.8915
1796.47	90.5786
1797.36	90.7346
1798.25	90.0005
1799.13	89.0121
