Acq. time (s)=	15
Accumulations=	2
Range (cm-¹)=	600...1800
Windows=	2
Autofocus=	Off
AutoExposure=	On
Spike filter=	Multiple accum.
Delay time (s)=	1
Binning=	1
Readout mode=	Signal
DeNoise=	Standard
ICS correction=	Off
Dark correction=	Off
Inst. Process=	Off
Instrument=	XploRA
Detector=	Syncerity
Objective=	x20LWD
Grating=	1200 gr/mm
Filter=	25%
Laser (nm)=	785 
Slit (µm)=	100 
Hole (µm)=	300 
Laser pol=	None
Raman pol=	None
Output=	Camera
StageXY=	Marzhauser
StageZ=	
X (µm)=	8977.7
Y (µm)=	10638.6
Project=	
Sample=	
Site=	
Title=	To12-T
Remark=	
Date=	15.10.2022 19:16
Acquired=	15.10.2022 19:16:18
600.787	630.701
601.956	644.769
603.126	656.318
604.294	667.04
605.463	676.26
606.631	686.742
607.8	695.199
608.967	703.165
610.135	710.028
611.302	714.009
612.468	722.678
613.635	730.419
614.802	736.373
615.968	742.174
617.133	747.909
618.299	753.603
619.464	759.714
620.629	766.133
621.793	772.544
622.958	779.055
624.121	784.795
625.285	789.675
626.448	793.569
627.612	796.762
628.774	799.208
629.937	800.811
631.099	801.618
632.261	802.001
633.423	801.602
634.584	803.053
635.745	804.699
636.906	806.465
638.066	807.224
639.227	808.49
640.386	811.385
641.546	814.8
642.705	818.669
643.864	821.824
645.023	822.686
646.181	823.548
647.339	825.412
648.497	825.278
649.655	825.091
650.812	825.156
651.969	825.656
653.125	826.424
654.282	827.506
655.438	828.84
656.593	830.426
657.75	831.302
658.905	831.664
660.059	832.61
661.214	833.196
662.368	833.984
663.522	834.768
664.676	835.931
665.83	837.398
666.983	839.281
668.136	841.484
669.288	843.926
670.441	846.008
671.592	846.35
672.744	846.638
673.895	846.414
675.046	846.513
676.197	847.564
677.348	850.046
678.498	852.666
679.648	855.174
680.798	857.111
681.947	858.62
683.096	859.892
684.245	860.668
685.394	861.117
686.542	861.161
687.69	860.896
688.837	860.539
689.984	860.193
691.132	860.459
692.278	860.833
693.425	861.373
694.571	862.085
695.717	863.398
696.863	864.983
698.008	866.734
699.152	867.994
700.298	865.06
701.442	863.578
702.586	863.104
703.73	861.56
704.873	860.734
706.017	861.039
707.16	861.913
708.302	863.771
709.445	865.658
710.586	866.406
711.729	865.584
712.87	864.514
714.012	862.976
715.152	861.139
716.293	861.013
717.433	861.656
718.573	861.731
719.713	861.314
720.853	860.421
721.991	858.399
723.131	856.219
724.269	854.227
725.408	853.381
726.545	852.734
727.683	852.766
728.821	853.557
729.958	855.087
731.095	857.743
732.231	861.512
733.368	866.42
734.503	871.725
735.639	875.762
736.775	882.714
737.91	885.465
739.045	887.113
740.179	889.204
741.313	890.889
742.447	892.24
743.581	891.628
744.714	889.777
745.847	887.025
746.98	883.473
748.113	878.719
749.245	872.199
750.377	865.239
751.509	859.872
752.64	854.607
753.771	849.227
754.902	842.694
756.033	836.392
757.163	830.61
758.293	826.109
759.423	822.335
760.551	819.386
761.681	817.067
762.81	815.484
763.938	814.381
765.066	813.404
766.194	810.988
767.321	807.433
768.449	805.742
769.576	803.986
770.703	801.037
771.83	797.931
772.955	794.65
774.081	791.089
775.207	786.772
776.332	782.371
777.457	778.47
778.582	775.919
779.707	773.81
780.831	772.332
781.954	771.708
783.078	771.371
784.201	771.115
785.324	770.904
786.447	770.295
787.569	769.423
788.691	768.422
789.813	767.386
790.935	766.055
792.056	764.723
793.177	763.374
794.297	762.058
795.418	760.871
796.539	760.048
797.658	759.337
798.777	759.11
799.897	758.98
801.016	757.516
802.134	755.112
803.253	752.411
804.371	749.528
805.489	746.94
806.606	745.176
807.723	742.541
808.84	737.531
809.957	732.968
811.073	729.177
812.19	725.799
813.305	723.286
814.421	723.511
815.536	730.218
816.651	728.238
817.766	726.607
818.88	725.182
819.994	724.368
821.108	724.189
822.221	724.435
823.335	724.757
824.448	725.083
825.56	725.26
826.673	724.855
827.784	724.403
828.897	723.851
830.008	723.075
831.119	722.199
832.23	721.036
833.341	719.638
834.451	718.03
835.561	716.331
836.671	714.512
837.78	712.726
838.89	710.89
839.998	708.959
841.108	707.55
842.216	706.314
843.324	705.186
844.431	703.937
845.539	702.601
846.646	701.34
847.753	699.833
848.859	698.138
849.966	696.471
851.071	695.169
852.178	694.312
853.283	693.641
854.388	692.599
855.494	691.165
856.598	689.73
857.703	685.783
858.806	680.158
859.91	669.649
861.014	674.491
862.116	679.353
863.22	681.075
864.322	679.794
865.425	678.721
866.527	676.726
867.628	674.036
868.73	671.616
869.831	669.257
870.932	667.332
872.032	665.406
873.133	663.999
874.233	662.466
875.333	659.433
876.432	655.863
877.532	651.928
878.631	648.415
879.729	645.381
880.828	644.451
881.926	644.222
883.023	644.057
884.121	643.524
885.218	643.028
886.315	643.074
887.412	643.556
888.508	644.188
889.604	644.954
890.699	645.695
891.795	646.301
892.89	647.1
893.985	648.182
895.08	649.387
896.174	648.506
897.268	647.083
898.362	645.615
899.456	643.96
900.549	642.519
901.642	640.388
902.734	638.453
903.827	636.954
904.919	636.997
906.011	638.166
907.102	639.479
908.193	640.421
909.284	641.068
910.375	642.285
911.465	642.12
912.555	641.845
913.645	641.518
914.734	640.931
915.824	640.117
916.913	638.919
918.001	637.363
919.09	635.408
920.177	632.743
921.266	629.284
922.353	625.629
923.44	621.193
924.527	616.582
925.614	611.979
926.7	608.027
927.786	604.237
928.873	600.66
929.958	597.18
931.043	593.816
932.128	590.128
933.213	586.423
934.297	583.318
935.381	581.611
936.465	581.281
937.549	581.706
938.632	581.173
939.715	581.628
940.798	582.949
941.881	584.715
942.962	586.369
944.044	588.038
945.125	588.999
946.207	588.905
947.288	587.657
948.368	585.092
949.449	581.634
950.529	577.051
951.61	572.034
952.689	568.39
953.769	564.98
954.847	561.59
955.926	558.892
957.004	557.03
958.082	557.688
959.16	557.307
960.238	556.226
961.316	555.026
962.392	553.907
963.469	552.825
964.546	551.928
965.622	551.206
966.698	550.595
967.774	550.434
968.849	550.339
969.924	550.12
970.998	550.274
972.073	551.771
973.148	554.654
974.221	559.022
975.295	558.082
976.369	557.069
977.441	558.233
978.514	557.452
979.587	562.31
980.659	568.556
981.731	575.632
982.802	579.547
983.874	579.589
984.945	578.633
986.016	577.106
987.087	574.405
988.157	570.944
989.227	567.24
990.296	564.365
991.366	562.512
992.435	561.03
993.504	560.125
994.573	559.302
995.641	558.7
996.709	558.058
997.777	557.953
998.844	557.85
999.911	557.286
1000.98	556.181
1002.05	554.615
1003.11	552.564
1004.18	550.047
1005.24	547.101
1006.31	543.914
1007.37	540.365
1008.44	536.594
1009.5	532.359
1010.57	528.111
1011.63	523.041
1012.7	516.247
1013.76	511.835
1014.82	509.524
1015.89	509.14
1016.95	522.138
1018.01	525.054
1019.07	524.443
1020.13	499.045
1021.2	503.929
1022.26	507.926
1023.32	510.933
1024.38	512.671
1025.44	512.19
1026.5	510.118
1027.56	506.9
1028.62	503.053
1029.68	499.11
1030.74	495.185
1031.8	491.751
1032.85	488.669
1033.91	486.999
1034.97	486.07
1036.03	485.816
1037.09	486.018
1038.14	486.205
1039.2	486.721
1040.26	487.852
1041.31	489.806
1042.37	491.759
1043.42	493.477
1044.48	494.034
1045.53	494.12
1046.59	493.43
1047.64	492.17
1048.7	489.482
1049.75	486.55
1050.81	483.537
1051.86	481.115
1052.91	478.82
1053.97	476.689
1055.02	474.814
1056.07	473.252
1057.12	472.037
1058.17	470.725
1059.23	470.078
1060.28	469.653
1061.33	469.322
1062.38	469.075
1063.43	468.834
1064.48	468.678
1065.53	468.252
1066.58	467.858
1067.63	467.393
1068.68	466.823
1069.72	466.071
1070.77	465.342
1071.82	464.609
1072.87	463.828
1073.92	462.832
1074.96	461.779
1076.01	460.559
1077.06	459.294
1078.1	457.751
1079.15	456.086
1080.2	454.45
1081.24	452.277
1082.29	450.149
1083.33	447.855
1084.38	445.857
1085.42	444.145
1086.47	443.421
1087.51	442.777
1088.55	442.271
1089.6	442.922
1090.64	443.655
1091.68	444.47
1092.73	445.322
1093.77	446.136
1094.81	446.644
1095.85	446.868
1096.89	446.946
1097.93	446.888
1098.98	446.68
1100.02	446.381
1101.06	445.858
1102.1	445.161
1103.14	444.38
1104.18	443.388
1105.21	442.298
1106.25	440.981
1107.29	439.822
1108.33	438.69
1109.37	437.492
1110.41	436.546
1111.44	435.758
1112.48	434.709
1113.52	433.534
1114.56	432.421
1115.59	430.948
1116.63	429.21
1117.66	427.473
1118.7	425.734
1119.73	424.026
1120.77	422.284
1121.8	420.611
1122.84	419.187
1123.87	418.02
1124.91	416.638
1125.94	415.533
1126.97	414.897
1128.01	415.421
1129.04	416.897
1130.07	418.953
1131.11	421.446
1132.14	424.419
1133.17	427.629
1134.2	430.953
1135.23	434.897
1136.26	439.285
1137.29	443.738
1138.32	448.033
1139.35	451.508
1140.38	454.477
1141.41	456.441
1142.44	455.79
1143.47	457.072
1144.5	456.847
1145.53	459.444
1146.56	462.477
1147.58	466.186
1148.61	470.214
1149.64	474.514
1150.67	479.177
1151.69	483.511
1152.72	487.233
1153.75	489.341
1154.77	489.863
1155.8	490.095
1156.82	488.115
1157.85	482.75
1158.87	474.075
1159.9	461.8
1160.92	445.673
1161.95	435.014
1162.97	424.592
1163.99	414.955
1165.02	406.292
1166.04	399.731
1167.06	402.176
1168.08	402.726
1169.11	403.894
1170.13	405.198
1171.15	406.564
1172.17	408.022
1173.19	409.65
1174.21	411.125
1175.23	413.183
1176.25	415.782
1177.27	419.494
1178.29	422.927
1179.31	426.071
1180.33	428.547
1181.35	430.369
1182.37	431.597
1183.39	432.199
1184.4	432.332
1185.42	431.897
1186.44	430.975
1187.46	429.471
1188.47	427.482
1189.49	424.976
1190.51	421.993
1191.52	418.503
1192.54	414.642
1193.55	410.186
1194.57	405.264
1195.58	399.884
1196.6	394.19
1197.61	388.066
1198.63	382.144
1199.64	378.788
1200.65	376.513
1201.67	375.002
1202.68	374.536
1203.69	375.104
1204.7	376.884
1205.72	381.075
1206.73	383.688
1207.74	386.359
1208.75	388.833
1209.76	394.551
1210.77	395.934
1211.78	396.168
1212.79	396.454
1213.8	396.169
1214.81	392.886
1215.82	390.832
1216.83	389.384
1217.84	388.221
1218.85	388.056
1219.86	388.26
1220.87	388.565
1221.87	388.417
1222.88	388.28
1223.89	387.922
1224.9	387.369
1225.9	386.56
1226.91	385.458
1227.92	384.097
1228.92	382.363
1229.93	380.39
1230.93	377.958
1231.94	375.211
1232.94	372.219
1233.95	368.575
1234.95	364.597
1235.95	360.84
1236.96	358.424
1237.96	356.097
1238.96	354.122
1239.97	351.551
1240.97	348.761
1241.97	346.351
1242.97	344.632
1243.98	343.502
1244.98	342.493
1245.98	341.662
1246.98	341.054
1247.98	340.575
1248.98	340.096
1249.98	339.516
1250.98	339.101
1251.98	338.545
1252.98	338.249
1253.98	338.176
1254.98	338.563
1255.98	340.307
1256.97	343.706
1257.97	344.769
1258.97	344.9
1259.97	344.345
1260.97	343.22
1261.96	341.152
1262.96	338.068
1263.95	333.979
1264.95	328.562
1265.95	326.501
1266.94	324.827
1267.94	322.81
1268.93	321.062
1269.93	319.569
1270.92	318.558
1271.92	318.035
1272.91	317.917
1273.9	318.484
1274.9	319.379
1275.89	320.943
1276.88	322.935
1277.87	325.395
1278.87	327.918
1279.86	330.31
1280.85	332.05
1281.84	333.078
1282.83	333.931
1283.82	334.344
1284.81	334.257
1285.81	333.732
1286.8	332.626
1287.79	330.858
1288.77	328.418
1289.76	325.323
1290.75	321.63
1291.74	317.924
1292.73	314.707
1293.72	311.479
1294.71	308.262
1295.69	307.198
1296.68	306.631
1297.67	306.626
1298.65	306.716
1299.64	307.393
1300.63	308.475
1301.61	310.098
1302.6	312.746
1303.58	315.831
1304.57	317.404
1305.55	317.906
1306.54	317.202
1307.52	315.604
1308.51	312.751
1309.49	308.823
1310.48	304.536
1311.46	301.518
1312.44	299.16
1313.42	297.456
1314.41	295.695
1315.39	297.366
1316.37	301.045
1317.35	303.479
1318.33	309.607
1319.32	315.317
1320.3	321.913
1321.28	329.108
1322.26	336.463
1323.24	342.75
1324.22	346.328
1325.2	347.98
1326.18	347.481
1327.15	344.314
1328.13	337.064
1329.11	326.936
1330.09	321.401
1331.07	315.848
1332.05	310.662
1333.02	305.674
1334	300.9
1334.98	296.408
1335.95	296.134
1336.93	293.68
1337.91	292.325
1338.88	291.065
1339.86	289.872
1340.83	288.621
1341.81	287.408
1342.78	285.907
1343.76	284.428
1344.73	282.789
1345.7	280.756
1346.68	278.777
1347.65	276.885
1348.62	275.22
1349.6	273.942
1350.57	274.15
1351.54	274.585
1352.51	275.324
1353.49	276.178
1354.46	276.752
1355.43	277.224
1356.4	277.564
1357.37	277.726
1358.34	277.672
1359.31	277.611
1360.28	276.659
1361.25	275.439
1362.22	274.052
1363.19	272.734
1364.16	271.436
1365.12	270.537
1366.09	269.623
1367.06	268.833
1368.03	268.202
1369	267.65
1369.96	267.333
1370.93	267.103
1371.9	266.974
1372.86	266.839
1373.83	266.526
1374.79	266.744
1375.76	266.991
1376.73	267.246
1377.69	267.476
1378.66	267.666
1379.62	267.671
1380.58	267.567
1381.55	267.034
1382.51	266.555
1383.48	266.01
1384.44	265.421
1385.4	264.78
1386.36	264.168
1387.33	263.475
1388.29	262.816
1389.25	262.106
1390.21	261.355
1391.17	260.676
1392.13	260.148
1393.09	259.796
1394.06	259.457
1395.01	259.19
1395.97	258.793
1396.93	258.3
1397.89	257.716
1398.85	256.302
1399.81	255.094
1400.77	253.19
1401.73	251.227
1402.69	249.353
1403.64	247.568
1404.6	246.362
1405.56	245.179
1406.52	244.203
1407.47	243.394
1408.43	242.7
1409.39	242.244
1410.34	242.055
1411.3	242.131
1412.25	242.372
1413.21	242.742
1414.16	243.297
1415.12	243.895
1416.07	244.52
1417.03	245.053
1417.98	244.919
1418.93	244.793
1419.89	244.427
1420.84	243.78
1421.79	243.318
1422.74	242.34
1423.7	241.433
1424.65	240.691
1425.6	240.343
1426.55	240.382
1427.5	240.915
1428.45	242.105
1429.4	243.743
1430.35	245.699
1431.3	247.917
1432.25	250.629
1433.2	253.248
1434.15	255.375
1435.1	257.13
1436.05	258.304
1437	258.746
1437.95	258.764
1438.89	258.149
1439.84	257.04
1440.79	255.267
1441.74	252.784
1442.68	249.61
1443.63	246.298
1444.58	242.894
1445.52	240.474
1446.47	238.383
1447.41	236.706
1448.36	235.258
1449.3	234.088
1450.25	233.165
1451.19	232.494
1452.14	232.117
1453.08	231.834
1454.03	231.588
1454.97	231.09
1455.91	230.327
1456.85	228.971
1457.8	227.523
1458.74	225.72
1459.68	223.924
1460.62	222.181
1461.57	220.87
1462.51	219.812
1463.45	219.593
1464.39	220.036
1465.33	220.122
1466.27	219.728
1467.21	219.38
1468.15	219.077
1469.09	218.788
1470.03	219.174
1470.97	219.956
1471.9	220.719
1472.84	221.163
1473.78	221.334
1474.72	221.251
1475.66	221.099
1476.59	220.919
1477.53	220.693
1478.47	220.425
1479.4	220.22
1480.34	220.064
1481.28	219.931
1482.21	219.838
1483.15	219.766
1484.08	219.781
1485.02	219.69
1485.95	220.532
1486.89	221.96
1487.82	223.177
1488.76	224.303
1489.69	225.225
1490.62	225.629
1491.56	225.729
1492.49	225.55
1493.42	225.061
1494.35	224.391
1495.29	223.661
1496.22	222.565
1497.15	221.17
1498.08	219.734
1499.01	218.387
1499.94	217.16
1500.87	216.749
1501.8	217.085
1502.73	217.546
1503.66	218.426
1504.59	219.367
1505.52	220.366
1506.45	221.348
1507.38	222.75
1508.31	224.457
1509.23	226.482
1510.16	228.916
1511.09	231.742
1512.02	235.094
1512.94	238.845
1513.87	243.035
1514.8	247.664
1515.72	252.577
1516.65	257.891
1517.58	263.522
1518.5	269.077
1519.43	274.588
1520.35	279.612
1521.28	284.167
1522.2	287.477
1523.12	290.107
1524.05	291.59
1524.97	291.929
1525.9	291.575
1526.82	290.327
1527.74	288.319
1528.66	285.707
1529.59	282.192
1530.51	278.044
1531.43	273.498
1532.35	268.447
1533.27	263.31
1534.19	258.101
1535.11	252.683
1536.04	247.101
1536.96	241.118
1537.88	234.924
1538.8	228.828
1539.71	224.108
1540.63	220.346
1541.55	217.639
1542.47	216.064
1543.39	215.442
1544.31	214.612
1545.23	214.461
1546.14	214.749
1547.06	214.984
1547.98	215.094
1548.89	215.065
1549.81	214.697
1550.73	213.999
1551.64	212.458
1552.56	210.688
1553.47	208.799
1554.39	206.79
1555.31	204.691
1556.22	202.607
1557.13	200.905
1558.05	199.27
1558.96	197.782
1559.88	196.311
1560.79	194.877
1561.7	193.624
1562.62	192.373
1563.53	191.249
1564.44	190.256
1565.35	189.297
1566.27	188.308
1567.18	187.023
1568.09	185.599
1569	184.244
1569.91	182.855
1570.82	181.629
1571.73	180.523
1572.64	179.582
1573.55	178.914
1574.46	178.488
1575.37	178.177
1576.28	178.012
1577.19	177.916
1578.1	177.807
1579	177.721
1579.91	177.64
1580.82	177.655
1581.73	177.501
1582.63	177.402
1583.54	177.25
1584.45	177.218
1585.35	177.277
1586.26	177.441
1587.17	177.693
1588.07	178.243
1588.98	179.188
1589.88	180.051
1590.79	180.972
1591.69	181.881
1592.6	182.662
1593.5	183.096
1594.4	183.509
1595.31	183.966
1596.21	184.464
1597.11	185.06
1598.02	185.559
1598.92	186.173
1599.82	186.855
1600.72	187.571
1601.63	188.304
1602.53	188.85
1603.43	189.186
1604.33	189.374
1605.23	189.492
1606.13	189.387
1607.03	189.047
1607.93	188.49
1608.83	187.681
1609.73	186.46
1610.63	185.268
1611.53	184.308
1612.43	183.271
1613.32	182.32
1614.22	181.551
1615.12	181.228
1616.02	181.207
1616.92	181.183
1617.81	180.769
1618.71	180.382
1619.61	180.019
1620.5	180.136
1621.4	181.103
1622.29	182.288
1623.19	182.521
1624.08	182.242
1624.98	181.911
1625.87	181.579
1626.77	181.21
1627.66	180.837
1628.56	180.476
1629.45	180.198
1630.34	180.061
1631.24	180.077
1632.13	180.473
1632.84	181.202
1633.77	181.399
1634.7	180.997
1635.63	180.742
1636.56	180.224
1637.49	180.077
1638.42	180.004
1639.34	180.009
1640.27	180.305
1641.2	180.496
1642.13	180.681
1643.05	180.845
1643.98	181.042
1644.91	181.147
1645.83	181.32
1646.76	181.464
1647.68	181.621
1648.61	181.765
1649.54	181.899
1650.46	181.982
1651.39	182.042
1652.31	182.078
1653.23	182.153
1654.16	182.092
1655.08	182.103
1656.01	181.819
1656.93	181.359
1657.85	181.014
1658.78	180.719
1659.7	180.51
1660.62	180.47
1661.54	181.106
1662.47	181.738
1663.39	182.805
1664.31	181.784
1665.23	180.584
1666.15	179.539
1667.07	177.115
1667.99	175.275
1668.92	173.551
1669.84	172.017
1670.76	170.43
1671.68	168.898
1672.6	167.348
1673.52	166.874
1674.43	166.685
1675.35	166.699
1676.27	167.455
1677.19	168.164
1678.11	168.827
1679.03	169.681
1679.95	170.997
1680.86	171.599
1681.78	172.157
1682.7	172.463
1683.61	171.767
1684.53	170.413
1685.45	170.61
1686.36	170.693
1687.28	170.338
1688.2	169.589
1689.11	168.502
1690.03	165.357
1690.94	163.973
1691.86	165.695
1692.77	165.35
1693.69	164.123
1694.6	163.034
1695.52	162.289
1696.43	161.585
1697.34	161.008
1698.26	160.61
1699.17	160.305
1700.08	160.259
1700.99	160.381
1701.91	160.868
1702.82	160.837
1703.73	160.795
1704.64	160.326
1705.55	160.039
1706.47	159.819
1707.38	159.126
1708.29	158.349
1709.2	157.265
1710.11	156.811
1711.02	156.997
1711.93	157.213
1712.84	157.548
1713.75	157.927
1714.66	158.142
1715.57	158.357
1716.48	158.563
1717.39	158.723
1718.29	158.958
1719.2	159.101
1720.11	159.219
1721.02	159.19
1721.93	158.767
1722.83	157.569
1723.74	157.608
1724.65	157.3
1725.55	156.618
1726.46	155.92
1727.37	155.282
1728.27	154.633
1729.18	154.077
1730.08	153.526
1730.99	153.428
1731.89	153.833
1732.8	154.057
1733.7	154.312
1734.61	154.537
1735.51	154.763
1736.42	154.638
1737.32	154.585
1738.22	154.589
1739.13	154.616
1740.03	154.25
1740.93	153.897
1741.83	153.508
1742.74	153.031
1743.64	152.427
1744.54	152.027
1745.44	151.686
1746.34	151.433
1747.24	151.207
1748.15	151.05
1749.05	150.997
1749.95	150.919
1750.85	150.832
1751.75	150.707
1752.65	150.512
1753.55	150.35
1754.45	149.431
1755.35	148.42
1756.25	147.431
1757.14	146.481
1758.04	145.599
1758.94	144.77
1759.84	144.519
1760.74	144.151
1761.63	144.042
1762.53	144.007
1763.43	144.325
1764.33	144.199
1765.22	143.818
1766.12	143.736
1767.02	143.544
1767.91	143.374
1768.81	143.204
1769.7	143.068
1770.6	142.92
1771.49	142.765
1772.39	142.584
1773.28	140.469
1774.18	138.366
1775.07	136.351
1775.97	135.379
1776.86	134.527
1777.75	134.163
1778.65	134.317
1779.54	135.134
1780.43	136.79
1781.33	138.719
1782.22	140.738
1783.11	142.375
1784	143.301
1784.89	143.461
1785.79	143.596
1786.68	143.745
1787.57	142.231
1788.46	141.344
1789.35	140.167
1790.24	138.531
1791.13	136.736
1792.02	134.391
1792.91	132.132
1793.8	129.866
1794.69	128.198
1795.58	127.285
1796.47	127.13
1797.36	128.115
1798.25	129.965
1799.13	122.566
