Acq. time (s)=	15
Accumulations=	2
Range (cm-¹)=	600...1800
Windows=	2
Autofocus=	Off
AutoExposure=	On
Spike filter=	Multiple accum.
Delay time (s)=	1
Binning=	1
Readout mode=	Signal
DeNoise=	Standard
ICS correction=	Off
Dark correction=	Off
Inst. Process=	Off
Instrument=	XploRA
Detector=	Syncerity
Objective=	x20LWD
Grating=	1200 gr/mm
Filter=	25%
Laser (nm)=	785 
Slit (µm)=	100 
Hole (µm)=	300 
Laser pol=	None
Raman pol=	None
Output=	Camera
StageXY=	Marzhauser
StageZ=	
X (µm)=	3893.8
Y (µm)=	5936.2
Project=	
Sample=	
Site=	
Title=	To11-T
Remark=	
Date=	15.10.2022 18:31
Acquired=	15.10.2022 18:31:26
600.787	667.315
601.956	673.748
603.126	681.719
604.294	689.609
605.463	698.066
606.631	704.697
607.8	708.111
608.967	714.399
610.135	720.986
611.302	727.005
612.468	732.81
613.635	738.182
614.802	743.477
615.968	748.779
617.133	753.936
618.299	758.862
619.464	763.451
620.629	767.759
621.793	771.258
622.958	773.664
624.121	775.862
625.285	777.873
626.448	779.837
627.612	781.906
628.774	783.927
629.937	785.922
631.099	787.969
632.261	790.003
633.423	792.003
634.584	794.085
635.745	796.319
636.906	798.588
638.066	800.746
639.227	802.696
640.386	804.075
641.546	805.273
642.705	806.109
643.864	806.631
645.023	806.768
646.181	806.381
647.339	806.081
648.497	806.51
649.655	807.688
650.812	809.046
651.969	810.855
653.125	812.887
654.282	815.231
655.438	817.671
656.593	820.024
657.75	822.684
658.905	825.519
660.059	827.722
661.214	828.374
662.368	828.528
663.522	828.85
664.676	829.215
665.83	829.599
666.983	829.733
668.136	829.692
669.288	830.575
670.441	832.678
671.592	835.297
672.744	838.257
673.895	841.305
675.046	844.107
676.197	846.79
677.348	849.375
678.498	851.662
679.648	853.489
680.798	855.255
681.947	851.823
683.096	849.146
684.245	846.539
685.394	845.509
686.542	845.525
687.69	846.085
688.837	846.93
689.984	848.23
691.132	849.123
692.278	850.147
693.425	851.455
694.571	853.301
695.717	855.296
696.863	857.327
698.008	858.535
699.152	853.033
700.298	847.922
701.442	844.659
702.586	842.04
703.73	840.482
704.873	839.378
706.017	838.565
707.16	838.047
708.302	837.232
709.445	836.419
710.586	835.059
711.729	834.397
712.87	834.169
714.012	834.189
715.152	834.476
716.293	834.783
717.433	834.973
718.573	834.608
719.713	833.832
720.853	830.059
721.991	826.084
723.131	823.105
724.269	822.09
725.408	821.941
726.545	822.4
727.683	823.521
728.821	825.015
729.958	826.513
731.095	828.385
732.231	830.593
733.368	833.527
734.503	836.969
735.639	840.645
736.775	844.395
737.91	847.65
739.045	850.694
740.179	853.136
741.313	854.848
742.447	855.524
743.581	855.117
744.714	853.941
745.847	851.971
746.98	848.54
748.113	844.314
749.245	839.567
750.377	835.096
751.509	829.986
752.64	824.629
753.771	819.524
754.902	814.509
756.033	810.169
757.163	805.715
758.293	800.997
759.423	796.357
760.551	792.032
761.681	788.099
762.81	785.176
763.938	782.75
765.066	782.626
766.194	779.345
767.321	775.691
768.449	771.924
769.576	768.205
770.703	764.889
771.83	762.263
772.955	760.281
774.081	756.456
775.207	753.111
776.332	751.064
777.457	749.659
778.582	748.855
779.707	748.884
780.831	749.102
781.954	749.426
783.078	748.103
784.201	746.387
785.324	744.512
786.447	742.47
787.569	740.7
788.691	738.065
789.813	735.025
790.935	731.857
792.056	728.402
793.177	724.874
794.297	721.748
795.418	718.448
796.539	715.565
797.658	714.58
798.777	714.281
799.897	713.884
801.016	713.838
802.134	712.997
803.253	711.821
804.371	710.416
805.489	709.089
806.606	707.682
807.723	706.285
808.84	704.912
809.957	703.5
811.073	702.273
812.19	700.952
813.305	699.702
814.421	698.439
815.536	697.163
816.651	695.741
817.766	694.317
818.88	692.748
819.994	691.396
821.108	689.819
822.221	688.382
823.335	687.131
824.448	686.162
825.56	686.207
826.673	686.677
827.784	688.147
828.897	689.799
830.008	691.553
831.119	693.409
832.23	694.818
833.341	696.104
834.451	696.967
835.561	697.459
836.671	697.559
837.78	697.094
838.89	695.994
839.998	693.925
841.108	691.351
842.216	688.176
843.324	684.529
844.431	680.408
845.539	676.327
846.646	673.82
847.753	673.166
848.859	672.972
849.966	673.007
851.071	672.471
852.178	672.186
853.283	671.985
854.388	672.095
855.494	672.123
856.598	672.088
857.703	671.708
858.806	671.071
859.91	669.743
861.014	667.623
862.116	665.175
863.22	662.592
864.322	659.951
865.425	657.213
866.527	655.203
867.628	653.161
868.73	651.374
869.831	649.508
870.932	647.562
872.032	645.507
873.133	643.488
874.233	641.66
875.333	639.993
876.432	638.843
877.532	638.615
878.631	639.086
879.729	638.541
880.828	637.481
881.926	636.487
883.023	634.617
884.121	633.241
885.218	632.466
886.315	632.201
887.412	631.619
888.508	630.814
889.604	630.042
890.699	629.359
891.795	628.651
892.89	628.012
893.985	627.344
895.08	626.577
896.174	625.948
897.268	625.453
898.362	624.917
899.456	624.505
900.549	623.998
901.642	623.232
902.734	622.98
903.827	622.644
904.919	621.691
906.011	624.027
907.102	624.668
908.193	626.123
909.284	629.272
910.375	631.663
911.465	633.287
912.555	633.763
913.645	633.33
914.734	632.12
915.824	630.374
916.913	627.913
918.001	624.92
919.09	621.414
920.177	616.995
921.266	612.603
922.353	610.362
923.44	605.925
924.527	601.638
925.614	597.505
926.7	593.492
927.786	589.716
928.873	586.09
929.958	582.717
931.043	579.636
932.128	576.872
933.213	574.409
934.297	572.387
935.381	571.178
936.465	570.417
937.549	569.797
938.632	569.063
939.715	567.857
940.798	566.877
941.881	565.872
942.962	564.94
944.044	564.073
945.125	563.231
946.207	562.594
947.288	561.913
948.368	561.016
949.449	559.874
950.529	559.513
951.61	559.46
952.689	558.925
953.769	558.488
954.847	558.065
955.926	557.703
957.004	557.318
958.082	556.933
959.16	556.446
960.238	554.684
961.316	553.391
962.392	554.566
963.469	554.209
964.546	552.827
965.622	551.125
966.698	549.704
967.774	549.01
968.849	548.779
969.924	548.984
970.998	549.844
972.073	549.707
973.148	549.545
974.221	550.034
975.295	551.431
976.369	552.696
977.441	554.399
978.514	556.962
979.587	559.417
980.659	561.56
981.731	562.571
982.802	562.959
983.874	562.859
984.945	562.152
986.016	560.999
987.087	559.698
988.157	558.516
989.227	557.27
990.296	557.258
991.366	556.378
992.435	554.855
993.504	553.541
994.573	552.657
995.641	552.094
996.709	551.886
997.777	552.315
998.844	552.584
999.911	552.668
1000.98	551.963
1002.05	550.519
1003.11	548.493
1004.18	545.866
1005.24	542.793
1006.31	539.297
1007.37	535.495
1008.44	531.545
1009.5	527.702
1010.57	523.566
1011.63	519.642
1012.7	516.05
1013.76	512.695
1014.82	511.033
1015.89	509.768
1016.95	508.649
1018.01	507.567
1019.07	506.032
1020.13	504.507
1021.2	502.983
1022.26	501.107
1023.32	498.891
1024.38	496.676
1025.44	494.314
1026.5	491.989
1027.56	489.82
1028.62	488.634
1029.68	487.454
1030.74	484.783
1031.8	483.459
1032.85	482.86
1033.91	482.787
1034.97	483.1
1036.03	483.508
1037.09	484.587
1038.14	485.734
1039.2	486.517
1040.26	487.24
1041.31	487.951
1042.37	488.527
1043.42	488.762
1044.48	488.13
1045.53	487.324
1046.59	485.321
1047.64	484.879
1048.7	484.674
1049.75	484.519
1050.81	483.553
1051.86	482.434
1052.91	481.226
1053.97	479.945
1055.02	478.612
1056.07	477.327
1057.12	476.089
1058.17	474.927
1059.23	473.78
1060.28	472.263
1061.33	470.717
1062.38	469.312
1063.43	467.919
1064.48	466.78
1065.53	465.777
1066.58	464.919
1067.63	464.927
1068.68	464.931
1069.72	464.959
1070.77	464.985
1071.82	465.032
1072.87	464.866
1073.92	464.751
1074.96	464.352
1076.01	463.973
1077.06	463.633
1078.1	463.21
1079.15	461.588
1080.2	458.045
1081.24	454.992
1082.29	452.471
1083.33	450.35
1084.38	449.327
1085.42	449.003
1086.47	449.213
1087.51	449.637
1088.55	450.222
1089.6	452.533
1090.64	452.007
1091.68	450.847
1092.73	449.514
1093.77	448.297
1094.81	445.704
1095.85	443.695
1096.89	441.759
1097.93	438.727
1098.98	436.72
1100.02	435.417
1101.06	434.881
1102.1	434.956
1103.14	435.843
1104.18	437.485
1105.21	439.948
1106.25	442.608
1107.29	444.751
1108.33	446.342
1109.37	446.249
1110.41	445.622
1111.44	444.297
1112.48	442.166
1113.52	439.922
1114.56	436.941
1115.59	433.966
1116.63	431.453
1117.66	429.323
1118.7	427.795
1119.73	426.575
1120.77	425.95
1121.8	425.794
1122.84	423.678
1123.87	422.405
1124.91	421.842
1125.94	421.704
1126.97	422.14
1128.01	422.996
1129.04	424.346
1130.07	425.99
1131.11	428.087
1132.14	430.649
1133.17	433.495
1134.2	436.717
1135.23	440.208
1136.26	442.88
1137.29	445.846
1138.32	449.035
1139.35	452.39
1140.38	455.888
1141.41	458.922
1142.44	461.421
1143.47	462.136
1144.5	462.786
1145.53	463.702
1146.56	464.487
1147.58	465.366
1148.61	466.312
1149.64	467.335
1150.67	468.709
1151.69	471.507
1152.72	474.463
1153.75	476.486
1154.77	478.58
1155.8	479.501
1156.82	478.763
1157.85	476.543
1158.87	472.714
1159.9	467.733
1160.92	461.033
1161.95	451.444
1162.97	445.211
1163.99	438.526
1165.02	431.423
1166.04	424.964
1167.06	419.889
1168.08	415.092
1169.11	413.785
1170.13	411.357
1171.15	409.732
1172.17	409.414
1173.19	410.562
1174.21	413.275
1175.23	416.555
1176.25	419.771
1177.27	423.052
1178.29	426.211
1179.31	429.166
1180.33	431.908
1181.35	434.409
1182.37	436.567
1183.39	438.484
1184.4	439.711
1185.42	439.743
1186.44	437.612
1187.46	434.014
1188.47	431.299
1189.49	428.149
1190.51	424.091
1191.52	419.561
1192.54	415.111
1193.55	410.862
1194.57	406.611
1195.58	401.898
1196.6	397.444
1197.61	393.472
1198.63	390.482
1199.64	387.927
1200.65	386.016
1201.67	384.618
1202.68	383.769
1203.69	383.369
1204.7	383.437
1205.72	384.007
1206.73	384.985
1207.74	386.234
1208.75	387.78
1209.76	389.261
1210.77	390.25
1211.78	391.943
1212.79	393.526
1213.8	394.853
1214.81	395.716
1215.82	395.634
1216.83	395.34
1217.84	394.842
1218.85	394.112
1219.86	393.579
1220.87	392.868
1221.87	392.072
1222.88	391.02
1223.89	389.696
1224.9	388.007
1225.9	385.301
1226.91	382.052
1227.92	379.002
1228.92	375.932
1229.93	372.945
1230.93	369.958
1231.94	367.145
1232.94	364.477
1233.95	361.934
1234.95	359.493
1235.95	357.256
1236.96	355.145
1237.96	353.204
1238.96	351.532
1239.97	349.867
1240.97	348.58
1241.97	347.533
1242.97	346.664
1243.98	345.987
1244.98	345.45
1245.98	345.025
1246.98	344.703
1247.98	344.484
1248.98	344.321
1249.98	344.303
1250.98	344.163
1251.98	344.101
1252.98	344.09
1253.98	344.245
1254.98	344.471
1255.98	344.739
1256.97	345.043
1257.97	345.357
1258.97	345.746
1259.97	346.174
1260.97	346.291
1261.96	345.533
1262.96	344.614
1263.95	342.24
1264.95	340.45
1265.95	338.783
1266.94	337.378
1267.94	336.627
1268.93	334.945
1269.93	332.5
1270.92	330.164
1271.92	328.04
1272.91	327.756
1273.9	328.683
1274.9	328.381
1275.89	328.486
1276.88	328.901
1277.87	329.726
1278.87	330.877
1279.86	332.523
1280.85	334.765
1281.84	337.442
1282.83	341.232
1283.82	344.947
1284.81	347.346
1285.81	347.438
1286.8	347.558
1287.79	347.227
1288.77	345.979
1289.76	343.115
1290.75	339.453
1291.74	336.035
1292.73	333.171
1293.72	330.775
1294.71	328.921
1295.69	325.182
1296.68	321.214
1297.67	318.8
1298.65	317.496
1299.64	317.76
1300.63	318.211
1301.61	318.388
1302.6	318.207
1303.58	317.837
1304.57	317.239
1305.55	316.157
1306.54	315.02
1307.52	313.868
1308.51	312.736
1309.49	312.166
1310.48	311.851
1311.46	311.438
1312.44	311.202
1313.42	311.233
1314.41	311.578
1315.39	312.745
1316.37	314.15
1317.35	316.134
1318.33	318.736
1319.32	322.14
1320.3	326.446
1321.28	331.614
1322.26	335.24
1323.24	340.36
1324.22	342.711
1325.2	345.91
1326.18	346.65
1327.15	345.941
1328.13	343.452
1329.11	339.968
1330.09	335.764
1331.07	331.124
1332.05	325.925
1333.02	320.219
1334	314.425
1334.98	308.719
1335.95	304.054
1336.93	300.584
1337.91	298.228
1338.88	296.634
1339.86	295.827
1340.83	295.365
1341.81	295.509
1342.78	294.13
1343.76	292.617
1344.73	291.473
1345.7	290.475
1346.68	289.486
1347.65	288.528
1348.62	287.467
1349.6	285.956
1350.57	284.281
1351.54	284.262
1352.51	284.869
1353.49	285.449
1354.46	285.865
1355.43	286.399
1356.4	288.247
1357.37	288.68
1358.34	288.334
1359.31	287.366
1360.28	286.205
1361.25	284.039
1362.22	281.766
1363.19	279.424
1364.16	277.213
1365.12	274.194
1366.09	271.194
1367.06	268.808
1368.03	267.045
1369	265.991
1369.96	265.618
1370.93	266.092
1371.9	267.435
1372.86	270.366
1373.83	271.276
1374.79	272.117
1375.76	272.902
1376.73	273.551
1377.69	274.18
1378.66	274.633
1379.62	274.944
1380.58	274.949
1381.55	274.446
1382.51	273.622
1383.48	272.761
1384.44	271.758
1385.4	270.867
1386.36	269.927
1387.33	268.967
1388.29	267.885
1389.25	266.812
1390.21	265.829
1391.17	264.971
1392.13	264.379
1393.09	264.035
1394.06	264.273
1395.01	264.619
1395.97	265.228
1396.93	265.838
1397.89	266.357
1398.85	266.371
1399.81	265.995
1400.77	264.903
1401.73	263.566
1402.69	262.066
1403.64	260.581
1404.6	259.524
1405.56	258.41
1406.52	256.834
1407.47	252.977
1408.43	251.165
1409.39	249.811
1410.34	248.896
1411.3	248.142
1412.25	247.721
1413.21	247.557
1414.16	247.434
1415.12	247.618
1416.07	247.812
1417.03	247.924
1417.98	246.528
1418.93	246.241
1419.89	246.331
1420.84	246.611
1421.79	247.077
1422.74	247.685
1423.7	248.216
1424.65	248.66
1425.6	249.002
1426.55	249.075
1427.5	248.352
1428.45	248.673
1429.4	249.338
1430.35	250.279
1431.3	251.187
1432.25	255.994
1433.2	257.28
1434.15	258.374
1435.1	259.138
1436.05	258.578
1437	257.794
1437.95	257.122
1438.89	256.315
1439.84	255.639
1440.79	254.783
1441.74	253.923
1442.68	253.163
1443.63	252.581
1444.58	252.097
1445.52	251.858
1446.47	251.724
1447.41	251.978
1448.36	252.616
1449.3	253.046
1450.25	253.144
1451.19	252.347
1452.14	251.159
1453.08	249.533
1454.03	247.463
1454.97	244.885
1455.91	241.705
1456.85	238.255
1457.8	235.672
1458.74	233.546
1459.68	231.813
1460.62	230.371
1461.57	229.161
1462.51	228.162
1463.45	227.469
1464.39	227.012
1465.33	226.865
1466.27	226.896
1467.21	227.314
1468.15	228.005
1469.09	228.643
1470.03	229.163
1470.97	228.747
1471.9	228.51
1472.84	228.214
1473.78	227.942
1474.72	227.649
1475.66	227.273
1476.59	227.118
1477.53	226.449
1478.47	225.82
1479.4	225.431
1480.34	225.197
1481.28	225.446
1482.21	225.87
1483.15	226.722
1484.08	227.9
1485.02	229.241
1485.95	230.683
1486.89	232.09
1487.82	233.515
1488.76	234.148
1489.69	235.102
1490.62	235.785
1491.56	236.061
1492.49	235.412
1493.42	234.339
1494.35	232.611
1495.29	230.308
1496.22	227.842
1497.15	225.53
1498.08	223.58
1499.01	221.599
1499.94	220.06
1500.87	218.896
1501.8	218.289
1502.73	218.332
1503.66	218.866
1504.59	219.965
1505.52	221.62
1506.45	223.667
1507.38	226.175
1508.31	229.1
1509.23	232.338
1510.16	235.536
1511.09	237.151
1512.02	240.299
1512.94	244.591
1513.87	249.256
1514.8	253.98
1515.72	258.721
1516.65	263.746
1517.58	269.091
1518.5	274.574
1519.43	280.437
1520.35	286.397
1521.28	292.163
1522.2	297.085
1523.12	300.954
1524.05	303.859
1524.97	305.444
1525.9	305.639
1526.82	304.433
1527.74	301.431
1528.66	299.286
1529.59	296.609
1530.51	292.528
1531.43	287.893
1532.35	282.791
1533.27	277.617
1534.19	272.336
1535.11	266.441
1536.04	260.754
1536.96	255.308
1537.88	250.041
1538.8	244.903
1539.71	240.412
1540.63	236.469
1541.55	233.088
1542.47	230.251
1543.39	227.907
1544.31	225.996
1545.23	224.521
1546.14	223.64
1547.06	222.943
1547.98	222.42
1548.89	221.365
1549.81	221.352
1550.73	221.393
1551.64	221.221
1552.56	220.25
1553.47	218.978
1554.39	217.459
1555.31	215.785
1556.22	214.362
1557.13	212.988
1558.05	211.478
1558.96	209.686
1559.88	207.365
1560.79	204.717
1561.7	201.672
1562.62	198.838
1563.53	196.443
1564.44	194.252
1565.35	192.244
1566.27	190.979
1567.18	190.181
1568.09	189.457
1569	188.904
1569.91	188.519
1570.82	188.523
1571.73	188.896
1572.64	189.018
1573.55	189.347
1574.46	189.872
1575.37	190.393
1576.28	190.694
1577.19	190.205
1578.1	189.768
1579	189.107
1579.91	188.394
1580.82	187.951
1581.73	187.775
1582.63	187.886
1583.54	188.048
1584.45	188.253
1585.35	188.613
1586.26	188.524
1587.17	188.175
1588.07	187.908
1588.98	187.776
1589.88	188.072
1590.79	188.382
1591.69	189.286
1592.6	190.082
1593.5	191.069
1594.4	192.077
1595.31	192.895
1596.21	193.669
1597.11	194.495
1598.02	195.029
1598.92	195.371
1599.82	195.834
1600.72	196.179
1601.63	196.376
1602.53	196.427
1603.43	196.382
1604.33	196.375
1605.23	196.301
1606.13	196.039
1607.03	195.66
1607.93	195.331
1608.83	194.803
1609.73	194.208
1610.63	193.711
1611.53	193.424
1612.43	192.853
1613.32	192.435
1614.22	191.921
1615.12	191.286
1616.02	190.684
1616.92	190.279
1617.81	189.876
1618.71	190.027
1619.61	190.012
1620.5	189.846
1621.4	189.272
1622.29	188.586
1623.19	187.697
1624.08	186.473
1624.98	185.326
1625.87	184.453
1626.77	183.614
1627.66	182.718
1628.56	182.19
1629.45	182.205
1630.34	182.115
1631.24	181.596
1632.13	181.355
1632.84	180.927
1633.77	180.003
1634.7	179.486
1635.63	179.753
1636.56	180.178
1637.49	180.516
1638.42	180.51
1639.34	177.995
1640.27	177.145
1641.2	177.39
1642.13	179.355
1643.05	179.826
1643.98	179.148
1644.91	178.546
1645.83	178.326
1646.76	178.368
1647.68	178.295
1648.61	177.842
1649.54	177.335
1650.46	177.079
1651.39	176.979
1652.31	176.41
1653.23	175.909
1654.16	175.026
1655.08	173.852
1656.01	173.707
1656.93	174.033
1657.85	174.017
1658.78	173.712
1659.7	173.385
1660.62	172.681
1661.54	172.104
1662.47	172.055
1663.39	172.758
1664.31	172.784
1665.23	173.124
1666.15	173.425
1667.07	174.06
1667.99	174.53
1668.92	174.463
1669.84	174.449
1670.76	173.566
1671.68	172.67
1672.6	172.08
1673.52	171.39
1674.43	171.062
1675.35	171.065
1676.27	171.068
1677.19	170.325
1678.11	169.403
1679.03	169.253
1679.95	169.154
1680.86	169.251
1681.78	169.233
1682.7	169.058
1683.61	168.912
1684.53	168.627
1685.45	168.069
1686.36	167.682
1687.28	167.313
1688.2	166.746
1689.11	166.502
1690.03	165.987
1690.94	165.781
1691.86	165.28
1692.77	164.566
1693.69	164.13
1694.6	163.718
1695.52	162.714
1696.43	161.892
1697.34	161.589
1698.26	161.625
1699.17	161.75
1700.08	161.731
1700.99	161.717
1701.91	160.888
1702.82	158.571
1703.73	157.478
1704.64	156.783
1705.55	156.732
1706.47	156.271
1707.38	156.935
1708.29	159.48
1709.2	159.702
1710.11	160.501
1711.02	161.351
1711.93	160.942
1712.84	159.693
1713.75	157.92
1714.66	156.746
1715.57	155.613
1716.48	154.26
1717.39	153.431
1718.29	152.899
1719.2	152.853
1720.11	153.021
1721.02	153.258
1721.93	153.236
1722.83	153.558
1723.74	153.113
1724.65	152.553
1725.55	152.213
1726.46	151.743
1727.37	151.157
1728.27	149.934
1729.18	149.345
1730.08	148.841
1730.99	148.807
1731.89	148.687
1732.8	149.065
1733.7	149.443
1734.61	149.993
1735.51	151.086
1736.42	152.143
1737.32	152.915
1738.22	153.081
1739.13	153.311
1740.03	153.826
1740.93	153.821
1741.83	153.227
1742.74	152.967
1743.64	152.509
1744.54	151.587
1745.44	150.184
1746.34	148.907
1747.24	148.351
1748.15	147.641
1749.05	147.314
1749.95	146.709
1750.85	147.069
1751.75	147.393
1752.65	148.14
1753.55	147.9
1754.45	147.421
1755.35	146.851
1756.25	146.4
1757.14	145.621
1758.04	144.041
1758.94	143.023
1759.84	142.533
1760.74	142.06
1761.63	141.747
1762.53	142.038
1763.43	142.042
1764.33	143.142
1765.22	142.936
1766.12	142.347
1767.02	141.4
1767.91	139.757
1768.81	139.029
1769.7	138.464
1770.6	137.796
1771.49	137.542
1772.39	137.224
1773.28	137.08
1774.18	140.2
1775.07	140.131
1775.97	139.369
1776.86	137.844
1777.75	137.194
1778.65	136.708
1779.54	135.729
1780.43	135.481
1781.33	135.49
1782.22	135.734
1783.11	135.924
1784	136.049
1784.89	136.281
1785.79	136.188
1786.68	136.312
1787.57	136.253
1788.46	135.656
1789.35	135.283
1790.24	135.141
1791.13	134.62
1792.02	134.771
1792.91	135.566
1793.8	135.966
1794.69	136.079
1795.58	134.557
1796.47	132.764
1797.36	131.102
1798.25	129.53
1799.13	129.475
