Acq. time (s)=	15
Accumulations=	2
Range (cm-¹)=	600...1800
Windows=	2
Autofocus=	Off
AutoExposure=	On
Spike filter=	Multiple accum.
Delay time (s)=	1
Binning=	1
Readout mode=	Signal
DeNoise=	Standard
ICS correction=	Off
Dark correction=	Off
Inst. Process=	Off
Instrument=	XploRA
Detector=	Syncerity
Objective=	x20LWD
Grating=	1200 gr/mm
Filter=	25%
Laser (nm)=	785 
Slit (µm)=	100 
Hole (µm)=	300 
Laser pol=	None
Raman pol=	None
Output=	Camera
StageXY=	Marzhauser
StageZ=	
X (µm)=	-3749.8
Y (µm)=	-3040.8
Project=	
Sample=	
Site=	
Title=	To4-T
Remark=	
Date=	14.10.2022 20:37
Acquired=	14.10.2022 20:37:36
600.787	494.594
601.956	497.773
603.126	501.265
604.294	504.893
605.463	508.056
606.631	511.339
607.8	514.605
608.967	517.603
610.135	520.65
611.302	523.299
612.468	525.587
613.635	527.841
614.802	530.038
615.968	532.185
617.133	534.329
618.299	536.474
619.464	538.669
620.629	541.199
621.793	543.739
622.958	546.495
624.121	548.905
625.285	550.973
626.448	552.123
627.612	553.049
628.774	554.296
629.937	555.353
631.099	556.187
632.261	555.377
633.423	554.546
634.584	554.204
635.745	554.634
636.906	555.68
638.066	557.067
639.227	558.581
640.386	560.256
641.546	561.643
642.705	563.242
643.864	564.67
645.023	566.001
646.181	567.168
647.339	568.069
648.497	568.57
649.655	564.306
650.812	564.542
651.969	564.586
653.125	564.614
654.282	564.28
655.438	563.521
656.593	562.545
657.75	563.404
658.905	563.378
660.059	562.622
661.214	561.222
662.368	559.916
663.522	559.262
664.676	559.204
665.83	559.438
666.983	560.054
668.136	560.775
669.288	561.909
670.441	563.419
671.592	565.544
672.744	567.746
673.895	569.957
675.046	571.673
676.197	572.882
677.348	573.461
678.498	573.88
679.648	573.673
680.798	573.277
681.947	572.861
683.096	572.477
684.245	572.251
685.394	572.252
686.542	572.591
687.69	573.032
688.837	573.762
689.984	574.703
691.132	575.898
692.278	577.408
693.425	579.565
694.571	581.735
695.717	583.954
696.863	585.042
698.008	585.362
699.152	585.097
700.298	584.407
701.442	583.672
702.586	583.041
703.73	582.339
704.873	579.866
706.017	576.702
707.16	573.796
708.302	571.455
709.445	569.433
710.586	567.729
711.729	566.494
712.87	565.512
714.012	565.278
715.152	565.176
716.293	565.198
717.433	565.111
718.573	564.411
719.713	563.595
720.853	562.681
721.991	561.592
723.131	560.365
724.269	559.049
725.408	557.703
726.545	556.175
727.683	554.637
728.821	553.005
729.958	551.899
731.095	551.851
732.231	552.673
733.368	555.438
734.503	559.299
735.639	563.733
736.775	568.773
737.91	573.664
739.045	579.086
740.179	584.796
741.313	590.944
742.447	592.412
743.581	592.576
744.714	590.779
745.847	582.299
746.98	575.06
748.113	568.617
749.245	563.39
750.377	559.496
751.509	557.218
752.64	555.787
753.771	555.077
754.902	553.891
756.033	552.68
757.163	551.029
758.293	548.306
759.423	543.76
760.551	541.354
761.681	538.682
762.81	537.026
763.938	535.47
765.066	534.124
766.194	532.811
767.321	531.5
768.449	530.184
769.576	528.733
770.703	527.351
771.83	525.813
772.955	524.271
774.081	522.472
775.207	520.574
776.332	518.777
777.457	517.002
778.582	515.031
779.707	512.692
780.831	508.805
781.954	504.759
783.078	500.854
784.201	497.359
785.324	494.673
786.447	492.718
787.569	491.445
788.691	490.867
789.813	490.948
790.935	491.607
792.056	492.735
793.177	493.98
794.297	494.444
795.418	494.227
796.539	494.088
797.658	494.46
798.777	494.475
799.897	493.752
801.016	491.826
802.134	489.256
803.253	486.043
804.371	482.426
805.489	478.224
806.606	473.201
807.723	468.155
808.84	465.147
809.957	463.012
811.073	461.878
812.19	461.684
813.305	462.28
814.421	463.788
815.536	465.765
816.651	469.062
817.766	470.997
818.88	472.424
819.994	472.944
821.108	472.826
822.221	471.724
823.335	469.847
824.448	466.41
825.56	465.006
826.673	463.937
827.784	463.407
828.897	463.002
830.008	463.282
831.119	464.128
832.23	465.872
833.341	468.335
834.451	471.131
835.561	472.541
836.671	473.112
837.78	472.947
838.89	472.334
839.998	471.319
841.108	470.047
842.216	468.84
843.324	467.293
844.431	465.541
845.539	463.613
846.646	461.599
847.753	459.47
848.859	457.165
849.966	454.825
851.071	452.813
852.178	451.124
853.283	449.113
854.388	446.665
855.494	443.103
856.598	439.396
857.703	435.188
858.806	431.349
859.91	428.535
861.014	426.994
862.116	426.819
863.22	427.705
864.322	429.63
865.425	432.569
866.527	435.997
867.628	437.972
868.73	440.021
869.831	441.455
870.932	441.962
872.032	441.465
873.133	438.93
874.233	436.308
875.333	433.949
876.432	431.179
877.532	428.183
878.631	425.309
879.729	422.525
880.828	419.964
881.926	418.399
883.023	417.683
884.121	419.706
885.218	421.736
886.315	423.105
887.412	424.058
888.508	424.617
889.604	424.724
890.699	424.443
891.795	423.607
892.89	422.568
893.985	421.131
895.08	419.488
896.174	417.24
897.268	414.374
898.362	410.56
899.456	406.965
900.549	403.621
901.642	401.84
902.734	401.373
903.827	403.082
904.919	404.079
906.011	405.057
907.102	406.245
908.193	409.466
909.284	412.968
910.375	415.623
911.465	417.803
912.555	419.309
913.645	420.289
914.734	420.626
915.824	420.516
916.913	419.622
918.001	418.123
919.09	415.841
920.177	413.224
921.266	410.241
922.353	406.9
923.44	403.966
924.527	400.814
925.614	397.985
926.7	395.46
927.786	393.252
928.873	391.507
929.958	390.918
931.043	390.256
932.128	389.307
933.213	387.573
934.297	385.979
935.381	384.332
936.465	382.451
937.549	380.406
938.632	378.477
939.715	376.558
940.798	374.969
941.881	373.885
942.962	373.839
944.044	373.574
945.125	373.463
946.207	373.076
947.288	373.93
948.368	375.158
949.449	376.238
950.529	377.226
951.61	377.887
952.689	377.968
953.769	377.819
954.847	377.446
955.926	376.775
957.004	375.982
958.082	374.981
959.16	373.847
960.238	372.634
961.316	371.001
962.392	369.146
963.469	366.87
964.546	364.726
965.622	362.73
966.698	360.993
967.774	359.952
968.849	359.487
969.924	359.57
970.998	359.972
972.073	360.671
973.148	361.568
974.221	362.529
975.295	363.221
976.369	363.595
977.441	363.426
978.514	365.052
979.587	366.903
980.659	368.959
981.731	371.1
982.802	373.143
983.874	375.166
984.945	376.981
986.016	378.692
987.087	380.285
988.157	382.066
989.227	383.384
990.296	384.277
991.366	384.203
992.435	382.491
993.504	379.498
994.573	375.19
995.641	369.203
996.709	364.725
997.777	361.801
998.844	360.096
999.911	363.141
1000.98	364.916
1002.05	366.646
1003.11	368.33
1004.18	369.599
1005.24	369.163
1006.31	367.429
1007.37	363.954
1008.44	360.024
1009.5	355.278
1010.57	350.884
1011.63	346.887
1012.7	343.191
1013.76	340.21
1014.82	337.752
1015.89	335.659
1016.95	333.956
1018.01	332.373
1019.07	330.741
1020.13	329.388
1021.2	328.265
1022.26	327.319
1023.32	327.197
1024.38	327.263
1025.44	327.761
1026.5	327.641
1027.56	327.196
1028.62	326.612
1029.68	325.979
1030.74	325.338
1031.8	324.68
1032.85	324.006
1033.91	323.338
1034.97	322.682
1036.03	322.119
1037.09	321.667
1038.14	321.146
1039.2	320.655
1040.26	320.036
1041.31	319.333
1042.37	318.703
1043.42	318.051
1044.48	317.95
1045.53	319.383
1046.59	319.553
1047.64	319.129
1048.7	318.643
1049.75	318.093
1050.81	317.589
1051.86	317.128
1052.91	316.725
1053.97	316.182
1055.02	316.009
1056.07	315.784
1057.12	315.62
1058.17	315.418
1059.23	315.196
1060.28	314.498
1061.33	313.012
1062.38	311.625
1063.43	310.596
1064.48	309.759
1065.53	309.624
1066.58	309.365
1067.63	309.098
1068.68	308.646
1069.72	308.079
1070.77	307.61
1071.82	307.081
1072.87	306.432
1073.92	305.653
1074.96	304.704
1076.01	303.576
1077.06	302.395
1078.1	301.257
1079.15	299.663
1080.2	298.02
1081.24	296.335
1082.29	294.909
1083.33	294.654
1084.38	294.842
1085.42	295.129
1086.47	295.415
1087.51	295.471
1088.55	295.488
1089.6	295.509
1090.64	295.359
1091.68	295.227
1092.73	295.097
1093.77	294.568
1094.81	294.035
1095.85	293.345
1096.89	292.679
1097.93	292.041
1098.98	291.433
1100.02	290.852
1101.06	290.733
1102.1	290.548
1103.14	290.168
1104.18	291.019
1105.21	291.956
1106.25	293.492
1107.29	294.874
1108.33	295.478
1109.37	296
1110.41	295.933
1111.44	295.35
1112.48	294.042
1113.52	292.496
1114.56	290.538
1115.59	288.361
1116.63	286.29
1117.66	284.295
1118.7	282.628
1119.73	281.555
1120.77	280.95
1121.8	285.311
1122.84	285.077
1123.87	284.044
1124.91	283.125
1125.94	282.089
1126.97	281.144
1128.01	278.885
1129.04	277.5
1130.07	277.558
1131.11	278.491
1132.14	279.963
1133.17	282.274
1134.2	287.508
1135.23	291.359
1136.26	294.771
1137.29	297.462
1138.32	299.597
1139.35	301.172
1140.38	302.339
1141.41	303.278
1142.44	303.764
1143.47	304.12
1144.5	304.404
1145.53	304.52
1146.56	304.972
1147.58	305.751
1148.61	306.861
1149.64	307.965
1150.67	309.111
1151.69	310.326
1152.72	311.593
1153.75	312.737
1154.77	313.551
1155.8	314.129
1156.82	314.272
1157.85	312.591
1158.87	309.637
1159.9	306.149
1160.92	303.254
1161.95	300.173
1162.97	296.568
1163.99	291.391
1165.02	285.51
1166.04	279.745
1167.06	274.675
1168.08	270.63
1169.11	267.575
1170.13	265.616
1171.15	264.267
1172.17	263.943
1173.19	264.179
1174.21	264.787
1175.23	265.992
1176.25	267.725
1177.27	269.771
1178.29	272.105
1179.31	274.487
1180.33	276.834
1181.35	279.169
1182.37	280.845
1183.39	282.796
1184.4	284.405
1185.42	285.592
1186.44	286.33
1187.46	286.282
1188.47	284.948
1189.49	283.21
1190.51	281.068
1191.52	278.58
1192.54	275.684
1193.55	272.98
1194.57	269.719
1195.58	266.555
1196.6	263.581
1197.61	260.777
1198.63	258.576
1199.64	256.567
1200.65	255.361
1201.67	254.584
1202.68	254.152
1203.69	254.021
1204.7	254.195
1205.72	254.681
1206.73	255.228
1207.74	255.915
1208.75	256.534
1209.76	257.265
1210.77	257.893
1211.78	258.422
1212.79	258.529
1213.8	258.595
1214.81	257.963
1215.82	256.968
1216.83	255.92
1217.84	254.762
1218.85	253.664
1219.86	253.101
1220.87	252.389
1221.87	251.678
1222.88	250.905
1223.89	250.309
1224.9	249.67
1225.9	248.986
1226.91	248.13
1227.92	247.194
1228.92	245.989
1229.93	244.694
1230.93	242.779
1231.94	240.641
1232.94	238.457
1233.95	236.366
1234.95	234.298
1235.95	232.542
1236.96	231.167
1237.96	229.806
1238.96	228.484
1239.97	227.289
1240.97	226.186
1241.97	225.221
1242.97	224.275
1243.98	223.382
1244.98	222.929
1245.98	222.576
1246.98	222.451
1247.98	222.534
1248.98	222.518
1249.98	222.517
1250.98	222.64
1251.98	222.557
1252.98	222.247
1253.98	222.016
1254.98	221.803
1255.98	221.623
1256.97	221.487
1257.97	221.348
1258.97	221.595
1259.97	221.587
1260.97	221.497
1261.96	221.412
1262.96	221.407
1263.95	221.394
1264.95	221.614
1265.95	222.122
1266.94	222.56
1267.94	223.15
1268.93	223.647
1269.93	224.552
1270.92	223.77
1271.92	222.378
1272.91	220.545
1273.9	218.429
1274.9	215.263
1275.89	216.39
1276.88	218.479
1277.87	220.1
1278.87	221.661
1279.86	222.775
1280.85	224.457
1281.84	219.996
1282.83	219.973
1283.82	218.478
1284.81	217.545
1285.81	217.168
1286.8	217.116
1287.79	217.14
1288.77	217.175
1289.76	216.946
1290.75	216.386
1291.74	215.03
1292.73	213.087
1293.72	210.631
1294.71	205.58
1295.69	203.746
1296.68	202.872
1297.67	202.461
1298.65	202.057
1299.64	201.761
1300.63	201.555
1301.61	201.806
1302.6	202.079
1303.58	202.439
1304.57	202.799
1305.55	203.056
1306.54	203.232
1307.52	203.353
1308.51	203.266
1309.49	202.635
1310.48	201.814
1311.46	200.832
1312.44	199.907
1313.42	198.956
1314.41	198.102
1315.39	197.893
1316.37	197.892
1317.35	198.302
1318.33	198.844
1319.32	200.121
1320.3	202.294
1321.28	206.926
1322.26	212.821
1323.24	220.354
1324.22	229.241
1325.2	233.389
1326.18	236.126
1327.15	237.248
1328.13	236.571
1329.11	225.094
1330.09	219.202
1331.07	213.637
1332.05	208.741
1333.02	204.922
1334	201.54
1334.98	198.756
1335.95	196.405
1336.93	194.501
1337.91	192.936
1338.88	191.648
1339.86	190.677
1340.83	190.22
1341.81	189.951
1342.78	189.921
1343.76	190.044
1344.73	190.235
1345.7	190.557
1346.68	190.621
1347.65	190.805
1348.62	191.088
1349.6	191.329
1350.57	191.625
1351.54	191.853
1352.51	192.223
1353.49	192.59
1354.46	192.848
1355.43	192.978
1356.4	192.923
1357.37	192.653
1358.34	191.886
1359.31	190.64
1360.28	188.834
1361.25	186.724
1362.22	184.452
1363.19	182.044
1364.16	179.534
1365.12	177.463
1366.09	175.312
1367.06	173.418
1368.03	171.754
1369	170.595
1369.96	170.07
1370.93	170.273
1371.9	171.197
1372.86	172.6
1373.83	174.09
1374.79	175.598
1375.76	176.855
1376.73	177.941
1377.69	178.792
1378.66	179.432
1379.62	179.888
1380.58	180.172
1381.55	180.159
1382.51	179.909
1383.48	179.365
1384.44	178.594
1385.4	177.706
1386.36	176.682
1387.33	175.51
1388.29	174.488
1389.25	173.908
1390.21	173.342
1391.17	172.819
1392.13	172.263
1393.09	171.267
1394.06	169.382
1395.01	168.054
1395.97	167.699
1396.93	182.124
1397.89	181.97
1398.85	166.623
1399.81	164.408
1400.77	173.016
1401.73	165.826
1402.69	163.364
1403.64	155.989
1404.6	163.416
1405.56	165.978
1406.52	167.394
1407.47	167.524
1408.43	165.761
1409.39	162.315
1410.34	161.926
1411.3	161.503
1412.25	161.204
1413.21	161.145
1414.16	161.319
1415.12	161.72
1416.07	162.417
1417.03	163.137
1417.98	163.965
1418.93	164.814
1419.89	165.528
1420.84	166.233
1421.79	166.434
1422.74	166.531
1423.7	166.277
1424.65	165.655
1425.6	163.141
1426.55	161.812
1427.5	161.087
1428.45	160.844
1429.4	160.973
1430.35	161.624
1431.3	163.173
1432.25	164.878
1433.2	166.655
1434.15	167.668
1435.1	168.507
1436.05	169.752
1437	171.059
1437.95	172.316
1438.89	173.312
1439.84	173.198
1440.79	172.286
1441.74	169.243
1442.68	167.282
1443.63	165.627
1444.58	164.283
1445.52	163.415
1446.47	162.906
1447.41	162.176
1448.36	161.36
1449.3	160.373
1450.25	159.029
1451.19	157.992
1452.14	157.03
1453.08	156.251
1454.03	155.579
1454.97	154.973
1455.91	154.165
1456.85	153.396
1457.8	152.593
1458.74	151.752
1459.68	151.067
1460.62	150.488
1461.57	150.112
1462.51	149.708
1463.45	149.723
1464.39	149.905
1465.33	150.315
1466.27	150.674
1467.21	150.911
1468.15	151.024
1469.09	150.753
1470.03	150.007
1470.97	149.059
1471.9	148.217
1472.84	147.452
1473.78	146.718
1474.72	146.129
1475.66	145.783
1476.59	145.762
1477.53	145.981
1478.47	146.404
1479.4	146.92
1480.34	147.534
1481.28	148.496
1482.21	149.468
1483.15	150.427
1484.08	151.377
1485.02	152.214
1485.95	152.904
1486.89	153.534
1487.82	154.071
1488.76	154.488
1489.69	154.786
1490.62	154.885
1491.56	154.857
1492.49	154.655
1493.42	154.319
1494.35	153.93
1495.29	153.383
1496.22	152.769
1497.15	152.042
1498.08	151.275
1499.01	150.366
1499.94	149.424
1500.87	148.152
1501.8	146.875
1502.73	145.621
1503.66	144.407
1504.59	143.73
1505.52	143.731
1506.45	144.272
1507.38	145.225
1508.31	146.507
1509.23	148.167
1510.16	150.061
1511.09	152.331
1512.02	154.857
1512.94	157.564
1513.87	161.042
1514.8	164.786
1515.72	168.921
1516.65	172.9
1517.58	176.266
1518.5	179.531
1519.43	183.073
1520.35	186.749
1521.28	191.068
1522.2	195.28
1523.12	199.372
1524.05	203.076
1524.97	205.682
1525.9	207.007
1526.82	205.485
1527.74	202.12
1528.66	199.615
1529.59	197.249
1530.51	196.004
1531.43	193.315
1532.35	189.943
1533.27	186.351
1534.19	182.612
1535.11	178.72
1536.04	174.348
1536.96	170.12
1537.88	165.812
1538.8	161.639
1539.71	157.959
1540.63	154.824
1541.55	152.407
1542.47	150.389
1543.39	148.639
1544.31	147.483
1545.23	146.613
1546.14	146.128
1547.06	145.896
1547.98	145.998
1548.89	146.063
1549.81	146.012
1550.73	145.859
1551.64	145.428
1552.56	144.979
1553.47	143.469
1554.39	141.855
1555.31	140.193
1556.22	138.54
1557.13	136.918
1558.05	135.307
1558.96	133.959
1559.88	132.556
1560.79	131.174
1561.7	129.795
1562.62	128.458
1563.53	127.188
1564.44	125.957
1565.35	124.806
1566.27	123.749
1567.18	122.821
1568.09	122.036
1569	121.311
1569.91	120.861
1570.82	120.242
1571.73	119.552
1572.64	119.002
1573.55	118.429
1574.46	117.931
1575.37	117.633
1576.28	117.22
1577.19	116.772
1578.1	116.411
1579	116.158
1579.91	116.196
1580.82	116.341
1581.73	116.301
1582.63	116.37
1583.54	116.681
1584.45	117.161
1585.35	117.418
1586.26	116.857
1587.17	116.548
1588.07	116.099
1588.98	115.819
1589.88	115.754
1590.79	115.932
1591.69	116.481
1592.6	117.188
1593.5	117.889
1594.4	118.259
1595.31	118.143
1596.21	117.519
1597.11	117.085
1598.02	116.975
1598.92	116.882
1599.82	116.916
1600.72	117.292
1601.63	117.968
1602.53	118.63
1603.43	118.969
1604.33	119.28
1605.23	119.757
1606.13	120.326
1607.03	120.834
1607.93	121.207
1608.83	121.479
1609.73	121.186
1610.63	120.218
1611.53	118.751
1612.43	116.945
1613.32	114.317
1614.22	112.703
1615.12	111.423
1616.02	110.448
1616.92	109.438
1617.81	108.54
1618.71	107.794
1619.61	107.025
1620.5	106.819
1621.4	106.918
1622.29	107.114
1623.19	107.398
1624.08	107.779
1624.98	108.134
1625.87	108.408
1626.77	108.664
1627.66	108.863
1628.56	109.024
1629.45	109.156
1630.34	109.284
1631.24	109.392
1632.13	109.507
1632.84	109.559
1633.77	109.591
1634.7	109.606
1635.63	109.625
1636.56	109.646
1637.49	109.668
1638.42	109.651
1639.34	109.866
1640.27	110.052
1641.2	110.407
1642.13	110.69
1643.05	110.869
1643.98	110.619
1644.91	110.231
1645.83	109.753
1646.76	109.14
1647.68	108.45
1648.61	106.764
1649.54	105.4
1650.46	104.552
1651.39	104.052
1652.31	103.784
1653.23	103.914
1654.16	103.981
1655.08	103.929
1656.01	104.701
1656.93	105.714
1657.85	106.728
1658.78	107.549
1659.7	108.059
1660.62	108.315
1661.54	107.929
1662.47	107.51
1663.39	106.967
1664.31	105.789
1665.23	104.97
1666.15	104.427
1667.07	104.173
1667.99	103.934
1668.92	103.062
1669.84	102.234
1670.76	101.627
1671.68	100.964
1672.6	100.556
1673.52	99.9291
1674.43	99.9403
1675.35	100.058
1676.27	100.08
1677.19	100.997
1678.11	101.448
1679.03	100.931
1679.95	100.426
1680.86	99.6633
1681.78	97.9282
1682.7	95.6513
1683.61	94.7088
1684.53	94.4166
1685.45	94.7842
1686.36	95.7954
1687.28	97.3566
1688.2	96.8327
1689.11	96.3565
1690.03	95.9253
1690.94	95.8959
1691.86	96.111
1692.77	96.2587
1693.69	96.0792
1694.6	95.6527
1695.52	95.0294
1696.43	94.7006
1697.34	94.4314
1698.26	94.4157
1699.17	94.3462
1700.08	94.3228
1700.99	94.2428
1701.91	93.8976
1702.82	93.6626
1703.73	93.4755
1704.64	93.0685
1705.55	92.6338
1706.47	92.2166
1707.38	91.7947
1708.29	91.3973
1709.2	91.0154
1710.11	90.6805
1711.02	90.3705
1711.93	90.1361
1712.84	89.9259
1713.75	89.8461
1714.66	89.7625
1715.57	89.8833
1716.48	90.0868
1717.39	90.2334
1718.29	90.491
1719.2	90.7877
1720.11	91.1449
1721.02	91.582
1721.93	92.0352
1722.83	92.3208
1723.74	91.7728
1724.65	91.6591
1725.55	91.8401
1726.46	92.1048
1727.37	92.0994
1728.27	92.0083
1729.18	91.6398
1730.08	90.9044
1730.99	90.1495
1731.89	89.6911
1732.8	89.5301
1733.7	89.0722
1734.61	89.1724
1735.51	89.2566
1736.42	89.3574
1737.32	89.442
1738.22	89.64
1739.13	90.1544
1740.03	90.2591
1740.93	89.2617
1741.83	88.4512
1742.74	88.2861
1743.64	88.2355
1744.54	88.2711
1745.44	88.3226
1746.34	88.4211
1747.24	88.4664
1748.15	88.3787
1749.05	88.4644
1749.95	88.1383
1750.85	87.7435
1751.75	87.3582
1752.65	86.9016
1753.55	86.4178
1754.45	85.9035
1755.35	85.4064
1756.25	84.9382
1757.14	84.5136
1758.04	84.0748
1758.94	83.7027
1759.84	83.3182
1760.74	83.1479
1761.63	83.018
1762.53	82.828
1763.43	82.6334
1764.33	82.4477
1765.22	82.2411
1766.12	82.1208
1767.02	82.0228
1767.91	81.9304
1768.81	81.8569
1769.7	81.7454
1770.6	81.7449
1771.49	81.7393
1772.39	81.4549
1773.28	80.5111
1774.18	79.9615
1775.07	79.6334
1775.97	79.1177
1776.86	79.3115
1777.75	79.7915
1778.65	80.3128
1779.54	81.3418
1780.43	81.6046
1781.33	81.5123
1782.22	81.271
1783.11	81.0793
1784	80.873
1784.89	80.6253
1785.79	80.3412
1786.68	80.0053
1787.57	79.6089
1788.46	79.2173
1789.35	78.8467
1790.24	78.4159
1791.13	78.0375
1792.02	77.5248
1792.91	77.0436
1793.8	76.6001
1794.69	76.2394
1795.58	76.1778
1796.47	76.5906
1797.36	77.9911
1798.25	79.2077
1799.13	82.6403
