Acq. time (s)=	15
Accumulations=	2
Range (cm-¹)=	600...1800
Windows=	2
Autofocus=	Off
AutoExposure=	On
Spike filter=	Multiple accum.
Delay time (s)=	1
Binning=	1
Readout mode=	Signal
DeNoise=	Standard
ICS correction=	Off
Dark correction=	Off
Inst. Process=	Off
Instrument=	XploRA
Detector=	Syncerity
Objective=	x20LWD
Grating=	1200 gr/mm
Filter=	25%
Laser (nm)=	785 
Slit (µm)=	100 
Hole (µm)=	300 
Laser pol=	None
Raman pol=	None
Output=	Camera
StageXY=	Marzhauser
StageZ=	
X (µm)=	11634.6
Y (µm)=	-419
Project=	
Sample=	
Site=	
Title=	To20-T
Remark=	
Date=	16.10.2022 00:21
Acquired=	16.10.2022 00:21:07
600.787	502.706
601.956	510.48
603.126	519.047
604.294	524.258
605.463	528.79
606.631	533.051
607.8	537.019
608.967	540.005
610.135	543.675
611.302	546.45
612.468	550.223
613.635	554.72
614.802	558.056
615.968	560.953
617.133	564.197
618.299	567.529
619.464	570.529
620.629	572.824
621.793	573.785
622.958	577.678
624.121	582.121
625.285	587.903
626.448	591.716
627.612	593.868
628.774	596.482
629.937	597.402
631.099	598.147
632.261	597.591
633.423	592.628
634.584	590.135
635.745	588.686
636.906	591.085
638.066	591.321
639.227	591.397
640.386	592.578
641.546	593.927
642.705	595.164
643.864	596.405
645.023	597.4
646.181	596.097
647.339	596.854
648.497	597.872
649.655	598.754
650.812	599.184
651.969	599.924
653.125	599.574
654.282	599.993
655.438	600.29
656.593	600.466
657.75	600.974
658.905	601.845
660.059	603.178
661.214	603.937
662.368	604.536
663.522	604.694
664.676	604.102
665.83	604.44
666.983	604.907
668.136	605.936
669.288	607.889
670.441	609.458
671.592	610.654
672.744	611.675
673.895	613.374
675.046	614.784
676.197	617.081
677.348	619.735
678.498	622.171
679.648	624.127
680.798	625.574
681.947	626.351
683.096	625.715
684.245	625.228
685.394	624.193
686.542	624.329
687.69	624.347
688.837	624.059
689.984	624.006
691.132	623.238
692.278	622.15
693.425	620.331
694.571	617.853
695.717	616.057
696.863	615.283
698.008	615.18
699.152	615.21
700.298	615.727
701.442	615.394
702.586	614.307
703.73	613.398
704.873	614.102
706.017	613.947
707.16	614.685
708.302	614.718
709.445	615.797
710.586	615.789
711.729	615.915
712.87	615.693
714.012	614.54
715.152	612.684
716.293	610.525
717.433	608.213
718.573	606.642
719.713	605.618
720.853	604.714
721.991	603.039
723.131	601.582
724.269	599.849
725.408	599.11
726.545	600
727.683	600.994
728.821	600.678
729.958	601.45
731.095	602.528
732.231	604.581
733.368	605.918
734.503	607.835
735.639	608.749
736.775	609.202
737.91	609.267
739.045	609.989
740.179	611.09
741.313	609.021
742.447	605.185
743.581	600.291
744.714	595.685
745.847	586.954
746.98	582.785
748.113	577.534
749.245	577.083
750.377	576.971
751.509	578.793
752.64	580.593
753.771	587.192
754.902	585.361
756.033	583.968
757.163	581.01
758.293	577.047
759.423	575.836
760.551	574.721
761.681	573.801
762.81	572.516
763.938	571.76
765.066	570.574
766.194	568.894
767.321	568.64
768.449	567.875
769.576	566.269
770.703	564.898
771.83	562.654
772.955	560.486
774.081	559.066
775.207	557.487
776.332	555.008
777.457	552.569
778.582	551.041
779.707	549.95
780.831	549.485
781.954	548.901
783.078	548.709
784.201	548.087
785.324	547.582
786.447	547.352
787.569	546.35
788.691	543.699
789.813	540.54
790.935	536.91
792.056	531.866
793.177	529.406
794.297	526.821
795.418	525.422
796.539	524.674
797.658	523.667
798.777	523.696
799.897	523.809
801.016	524.118
802.134	524.955
803.253	523.946
804.371	521.7
805.489	519.703
806.606	517.693
807.723	516.401
808.84	515.334
809.957	513.639
811.073	513.199
812.19	513.189
813.305	512.502
814.421	511.962
815.536	511.663
816.651	511.44
817.766	511.419
818.88	511.07
819.994	511.495
821.108	512.048
822.221	512.203
823.335	511.986
824.448	511.88
825.56	510.953
826.673	510.602
827.784	510.145
828.897	509.792
830.008	508.786
831.119	507.877
832.23	506.178
833.341	505.523
834.451	504.58
835.561	503.778
836.671	503.983
837.78	504.191
838.89	503.902
839.998	504.009
841.108	504.405
842.216	505.9
843.324	506.371
844.431	506.202
845.539	506.515
846.646	506.575
847.753	506.39
848.859	505.32
849.966	504.602
851.071	503.435
852.178	501.978
853.283	500.47
854.388	498.959
855.494	497.788
856.598	495.667
857.703	492.662
858.806	489.948
859.91	486.953
861.014	483.768
862.116	481.44
863.22	479.909
864.322	478.35
865.425	479.307
866.527	479.516
867.628	478.879
868.73	478.104
869.831	477.148
870.932	476.04
872.032	475.277
873.133	474.322
874.233	474.257
875.333	473.229
876.432	471.486
877.532	469.469
878.631	466.908
879.729	464.838
880.828	463.834
881.926	462.664
883.023	462.416
884.121	460.471
885.218	458.68
886.315	457.064
887.412	455.213
888.508	453.68
889.604	452.513
890.699	452.596
891.795	453.498
892.89	453.912
893.985	457.378
895.08	460.556
896.174	463.55
897.268	468.026
898.362	470.755
899.456	472.551
900.549	472.154
901.642	468.551
902.734	467.455
903.827	468.188
904.919	467.808
906.011	467.131
907.102	466.075
908.193	465.363
909.284	464.569
910.375	463.548
911.465	462.112
912.555	461.68
913.645	461.369
914.734	461.378
915.824	460.822
916.913	459.839
918.001	458.537
919.09	456.45
920.177	454.038
921.266	451.666
922.353	449.066
923.44	445.781
924.527	443.14
925.614	440.528
926.7	437.204
927.786	434.481
928.873	432.444
929.958	430.14
931.043	427.509
932.128	424.842
933.213	423.161
934.297	422.395
935.381	422.755
936.465	420.729
937.549	419.752
938.632	417.216
939.715	414.851
940.798	413.008
941.881	412.135
942.962	412.133
944.044	412.795
945.125	414.07
946.207	414.764
947.288	414.905
948.368	415.574
949.449	412.548
950.529	411.596
951.61	411.807
952.689	412.762
953.769	412.817
954.847	414.779
955.926	413.891
957.004	411.473
958.082	407.185
959.16	401.347
960.238	400.462
961.316	399.514
962.392	400.058
963.469	400.789
964.546	402.278
965.622	406.708
966.698	410.387
967.774	412.154
968.849	410.702
969.924	411.088
970.998	410.785
972.073	410.794
973.148	410.82
974.221	412.297
975.295	413.594
976.369	414.922
977.441	416.229
978.514	417.297
979.587	418.448
980.659	419.374
981.731	419.951
982.802	420.726
983.874	421.284
984.945	421.103
986.016	421.075
987.087	420.569
988.157	419.298
989.227	417.868
990.296	416.766
991.366	414.448
992.435	412.593
993.504	410.411
994.573	408.715
995.641	408.079
996.709	406.533
997.777	405.301
998.844	403.471
999.911	401.424
1000.98	399.574
1002.05	397.63
1003.11	394.591
1004.18	392.624
1005.24	390.865
1006.31	389.264
1007.37	388.191
1008.44	387.107
1009.5	385.65
1010.57	384.555
1011.63	383.218
1012.7	381.101
1013.76	380.321
1014.82	380.219
1015.89	379.723
1016.95	379.369
1018.01	377.82
1019.07	377.191
1020.13	374.286
1021.2	368.824
1022.26	363.259
1023.32	359.707
1024.38	357.18
1025.44	355.578
1026.5	353.04
1027.56	351.885
1028.62	351.587
1029.68	353.2
1030.74	357.999
1031.8	359.608
1032.85	362.973
1033.91	366.841
1034.97	368.856
1036.03	369.716
1037.09	365.42
1038.14	364.319
1039.2	363.263
1040.26	361.979
1041.31	360.548
1042.37	359.098
1043.42	357.958
1044.48	356.846
1045.53	357.171
1046.59	357.132
1047.64	357.134
1048.7	357.608
1049.75	357.018
1050.81	355.924
1051.86	354.417
1052.91	352.264
1053.97	350.389
1055.02	349.055
1056.07	346.815
1057.12	345.312
1058.17	343.652
1059.23	342.87
1060.28	341.434
1061.33	340.605
1062.38	340.697
1063.43	341.348
1064.48	342.568
1065.53	342.739
1066.58	344.04
1067.63	345.237
1068.68	346.473
1069.72	347.166
1070.77	347.79
1071.82	347.989
1072.87	347.804
1073.92	346.783
1074.96	345.609
1076.01	344.739
1077.06	343.559
1078.1	342.859
1079.15	341.747
1080.2	340.365
1081.24	338.782
1082.29	338.381
1083.33	338.022
1084.38	337.736
1085.42	337.351
1086.47	336.644
1087.51	337.485
1088.55	338.299
1089.6	338.148
1090.64	337.83
1091.68	338.254
1092.73	338.819
1093.77	339.324
1094.81	338.983
1095.85	338.071
1096.89	337.173
1097.93	335.532
1098.98	334.01
1100.02	333.337
1101.06	333.236
1102.1	333.183
1103.14	333.565
1104.18	333.399
1105.21	333.609
1106.25	333.443
1107.29	333.528
1108.33	332.704
1109.37	332.34
1110.41	332.043
1111.44	330.891
1112.48	329.427
1113.52	327.193
1114.56	324.398
1115.59	321.443
1116.63	319.208
1117.66	316.959
1118.7	315.556
1119.73	314.897
1120.77	314.964
1121.8	314.253
1122.84	313.474
1123.87	312.426
1124.91	311.888
1125.94	311.637
1126.97	312.256
1128.01	314.008
1129.04	316.095
1130.07	318.722
1131.11	321.643
1132.14	323.98
1133.17	326.227
1134.2	329.014
1135.23	331.311
1136.26	332.963
1137.29	334.391
1138.32	335.117
1139.35	335.265
1140.38	334.159
1141.41	334.708
1142.44	335.38
1143.47	336.043
1144.5	336.618
1145.53	337.777
1146.56	340.726
1147.58	343.338
1148.61	346.262
1149.64	347.819
1150.67	348.657
1151.69	349.816
1152.72	350.863
1153.75	351.055
1154.77	349.597
1155.8	346.496
1156.82	343.219
1157.85	338.933
1158.87	334.799
1159.9	329.854
1160.92	325.134
1161.95	321.345
1162.97	318.467
1163.99	315.578
1165.02	313.118
1166.04	310.532
1167.06	309.558
1168.08	307.875
1169.11	307.421
1170.13	307.614
1171.15	308.138
1172.17	308.857
1173.19	310.269
1174.21	311.914
1175.23	313.721
1176.25	315.704
1177.27	317.941
1178.29	319.353
1179.31	321.474
1180.33	323.348
1181.35	324.299
1182.37	324.977
1183.39	325.169
1184.4	324.088
1185.42	323.041
1186.44	321.568
1187.46	319.127
1188.47	315.56
1189.49	311.867
1190.51	308.037
1191.52	305.149
1192.54	302.469
1193.55	299.953
1194.57	296.998
1195.58	294.504
1196.6	291.892
1197.61	290.09
1198.63	288.617
1199.64	288.046
1200.65	287.999
1201.67	287.71
1202.68	287.979
1203.69	288.579
1204.7	288.587
1205.72	288.961
1206.73	288.383
1207.74	288.23
1208.75	288.232
1209.76	288.476
1210.77	289.127
1211.78	290.24
1212.79	291.243
1213.8	291.974
1214.81	293.547
1215.82	295.148
1216.83	296.176
1217.84	296.094
1218.85	295.376
1219.86	294.07
1220.87	292.038
1221.87	290.27
1222.88	288.51
1223.89	286.909
1224.9	284.306
1225.9	282.771
1226.91	281.334
1227.92	279.412
1228.92	278.081
1229.93	277.198
1230.93	276.859
1231.94	275.401
1232.94	274.205
1233.95	272.828
1234.95	271.601
1235.95	269.89
1236.96	267.965
1237.96	266.98
1238.96	265.04
1239.97	263.749
1240.97	263.139
1241.97	263.269
1242.97	263.58
1243.98	263.771
1244.98	263.624
1245.98	262.662
1246.98	261.704
1247.98	260.239
1248.98	259.899
1249.98	259.19
1250.98	258.959
1251.98	258.178
1252.98	257.103
1253.98	255.972
1254.98	254.676
1255.98	253.881
1256.97	252.872
1257.97	252.086
1258.97	251.229
1259.97	251.272
1260.97	251.927
1261.96	252.326
1262.96	252.259
1263.95	251.736
1264.95	250.953
1265.95	250.352
1266.94	248.959
1267.94	247.881
1268.93	247.573
1269.93	247.692
1270.92	248.464
1271.92	248.49
1272.91	248.756
1273.9	249.616
1274.9	249.869
1275.89	250.647
1276.88	251.835
1277.87	252.737
1278.87	253.573
1279.86	254.535
1280.85	255.438
1281.84	255.673
1282.83	255.228
1283.82	254.981
1284.81	254.392
1285.81	253.287
1286.8	252.14
1287.79	250.862
1288.77	249.078
1289.76	246.766
1290.75	244.695
1291.74	242.672
1292.73	241.093
1293.72	239.638
1294.71	237.737
1295.69	236.2
1296.68	234.819
1297.67	233.921
1298.65	234.028
1299.64	234.162
1300.63	235.039
1301.61	235.828
1302.6	237.318
1303.58	238.823
1304.57	240.955
1305.55	242.843
1306.54	243.71
1307.52	243.728
1308.51	242.98
1309.49	242.672
1310.48	241.222
1311.46	240.377
1312.44	239.029
1313.42	237.385
1314.41	235.712
1315.39	235.336
1316.37	233.93
1317.35	233.857
1318.33	236.438
1319.32	240.151
1320.3	245.214
1321.28	249.73
1322.26	254.034
1323.24	257.097
1324.22	258.267
1325.2	259.238
1326.18	256.794
1327.15	255.641
1328.13	253.702
1329.11	249.397
1330.09	247.995
1331.07	244.738
1332.05	241.352
1333.02	237.963
1334	234.488
1334.98	231.646
1335.95	228.63
1336.93	226.349
1337.91	224.536
1338.88	223.032
1339.86	222.4
1340.83	223.099
1341.81	223.02
1342.78	223.371
1343.76	223.889
1344.73	224.662
1345.7	224.801
1346.68	224.696
1347.65	223.673
1348.62	222.135
1349.6	221.536
1350.57	219.37
1351.54	218.664
1352.51	218.2
1353.49	218.022
1354.46	218.159
1355.43	217.564
1356.4	217.015
1357.37	216.897
1358.34	216.955
1359.31	216.665
1360.28	216.861
1361.25	215.138
1362.22	212.729
1363.19	210.81
1364.16	208.882
1365.12	207.627
1366.09	207.087
1367.06	207.342
1368.03	208.328
1369	209.044
1369.96	210.069
1370.93	210.457
1371.9	210.389
1372.86	210.627
1373.83	210.388
1374.79	210.861
1375.76	211.702
1376.73	212.06
1377.69	212.397
1378.66	212.004
1379.62	212.172
1380.58	212.093
1381.55	212.174
1382.51	212.19
1383.48	211.159
1384.44	210.531
1385.4	210.17
1386.36	209.606
1387.33	209.416
1388.29	208.741
1389.25	208.384
1390.21	207.376
1391.17	206.471
1392.13	205.901
1393.09	205.608
1394.06	205.477
1395.01	204.895
1395.97	204.283
1396.93	203.957
1397.89	203.466
1398.85	203.367
1399.81	203.597
1400.77	203.632
1401.73	203.311
1402.69	202.732
1403.64	201.796
1404.6	200.859
1405.56	200.366
1406.52	199.833
1407.47	199.495
1408.43	199.569
1409.39	199.789
1410.34	199.715
1411.3	199.5
1412.25	199.146
1413.21	197.392
1414.16	195.226
1415.12	192.738
1416.07	190.202
1417.03	187.673
1417.98	185.927
1418.93	184.759
1419.89	183.839
1420.84	183.378
1421.79	186.611
1422.74	187.099
1423.7	188.347
1424.65	189.829
1425.6	191.541
1426.55	193.062
1427.5	194.603
1428.45	196.908
1429.4	198.783
1430.35	200.07
1431.3	200.741
1432.25	201.883
1433.2	202.265
1434.15	201.357
1435.1	200.804
1436.05	200.271
1437	199.931
1437.95	199.691
1438.89	199.011
1439.84	198.586
1440.79	198.298
1441.74	200.482
1442.68	200.61
1443.63	200.309
1444.58	199.461
1445.52	198.199
1446.47	196.864
1447.41	195.69
1448.36	194.002
1449.3	192.046
1450.25	190.439
1451.19	188.296
1452.14	186.391
1453.08	184.151
1454.03	181.816
1454.97	180.143
1455.91	179.075
1456.85	178.444
1457.8	178.046
1458.74	178.156
1459.68	177.785
1460.62	177.63
1461.57	177.442
1462.51	177.81
1463.45	179.183
1464.39	181.199
1465.33	181.613
1466.27	182.114
1467.21	182.273
1468.15	182.952
1469.09	183.41
1470.03	183.92
1470.97	184.574
1471.9	182.664
1472.84	180.934
1473.78	178.956
1474.72	176.882
1475.66	175.446
1476.59	173.826
1477.53	172.704
1478.47	171.891
1479.4	171.334
1480.34	170.863
1481.28	171.117
1482.21	172.139
1483.15	172.587
1484.08	172.715
1485.02	174.297
1485.95	175.308
1486.89	176.141
1487.82	176.034
1488.76	175.646
1489.69	174.514
1490.62	173.567
1491.56	172.988
1492.49	172.459
1493.42	171.496
1494.35	170.514
1495.29	169.725
1496.22	169.176
1497.15	168.17
1498.08	167.421
1499.01	166.465
1499.94	165.86
1500.87	166.309
1501.8	167.185
1502.73	166.689
1503.66	167.406
1504.59	167.857
1505.52	168.795
1506.45	170.319
1507.38	172.666
1508.31	174.633
1509.23	177.376
1510.16	180.637
1511.09	184.371
1512.02	188.268
1512.94	192.434
1513.87	196.278
1514.8	200.139
1515.72	203.432
1516.65	206.633
1517.58	209.912
1518.5	213.34
1519.43	216.666
1520.35	220.188
1521.28	222.759
1522.2	224.198
1523.12	224.805
1524.05	225.067
1524.97	224.076
1525.9	222.926
1526.82	221.304
1527.74	219.323
1528.66	217.048
1529.59	213.443
1530.51	209.094
1531.43	204.509
1532.35	199.453
1533.27	194.527
1534.19	189.359
1535.11	185.214
1536.04	181.372
1536.96	178.58
1537.88	176.226
1538.8	174.244
1539.71	172.444
1540.63	170.85
1541.55	170.166
1542.47	170.038
1543.39	170.384
1544.31	170.765
1545.23	171.993
1546.14	173.141
1547.06	172.145
1547.98	171.251
1548.89	170.374
1549.81	169.351
1550.73	168.425
1551.64	167.512
1552.56	166.267
1553.47	164.677
1554.39	162.025
1555.31	159.877
1556.22	157.825
1557.13	156.011
1558.05	154.511
1558.96	153.145
1559.88	152.55
1560.79	151.585
1561.7	150.859
1562.62	150.222
1563.53	149.732
1564.44	149.705
1565.35	149.674
1566.27	149.425
1567.18	149.165
1568.09	149.146
1569	148.777
1569.91	147.953
1570.82	147.119
1571.73	146.325
1572.64	145.767
1573.55	145.45
1574.46	145.136
1575.37	144.597
1576.28	144.145
1577.19	143.891
1578.1	143.363
1579	142.749
1579.91	142.188
1580.82	141.669
1581.73	141.771
1582.63	142.373
1583.54	143.061
1584.45	143.974
1585.35	144.237
1586.26	144.702
1587.17	144.932
1588.07	145.674
1588.98	146.552
1589.88	146.841
1590.79	146.84
1591.69	146.839
1592.6	146.78
1593.5	146.944
1594.4	146.812
1595.31	146.958
1596.21	147.314
1597.11	148.059
1598.02	149.154
1598.92	150.154
1599.82	151.042
1600.72	151.486
1601.63	151.673
1602.53	151.601
1603.43	151.326
1604.33	150.886
1605.23	150.329
1606.13	149.804
1607.03	149.086
1607.93	148.232
1608.83	147.332
1609.73	146.439
1610.63	145.489
1611.53	144.567
1612.43	143.673
1613.32	143.28
1614.22	143.062
1615.12	143.103
1616.02	143.206
1616.92	142.601
1617.81	142.452
1618.71	142.314
1619.61	141.922
1620.5	141.815
1621.4	141.68
1622.29	141.337
1623.19	140.985
1624.08	141.142
1624.98	141.508
1625.87	141.677
1626.77	142.006
1627.66	142.519
1628.56	143.05
1629.45	143.551
1630.34	143.753
1631.24	143.555
1632.13	143.299
1632.84	142.931
1633.77	142.329
1634.7	141.774
1635.63	141.211
1636.56	140.689
1637.49	140.12
1638.42	139.511
1639.34	138.899
1640.27	138.211
1641.2	137.39
1642.13	136.662
1643.05	135.614
1643.98	134.546
1644.91	133.481
1645.83	132.401
1646.76	131.419
1647.68	130.554
1648.61	130.494
1649.54	130.321
1650.46	130.383
1651.39	130.56
1652.31	130.848
1653.23	131.282
1654.16	131.835
1655.08	132.525
1656.01	133.18
1656.93	133.901
1657.85	134.643
1658.78	135.407
1659.7	136.267
1660.62	136.746
1661.54	136.655
1662.47	136.288
1663.39	135.845
1664.31	135.394
1665.23	135.022
1666.15	134.715
1667.07	134.393
1667.99	134.163
1668.92	133.915
1669.84	133.756
1670.76	133.678
1671.68	133.6
1672.6	133.708
1673.52	133.793
1674.43	133.83
1675.35	134.153
1676.27	134.504
1677.19	133.913
1678.11	133.27
1679.03	132.502
1679.95	131.895
1680.86	130.948
1681.78	130.136
1682.7	129.944
1683.61	129.711
1684.53	129.214
1685.45	128.841
1686.36	128.575
1687.28	128.163
1688.2	127.592
1689.11	126.197
1690.03	124.434
1690.94	122.597
1691.86	120.782
1692.77	120.296
1693.69	121.863
1694.6	120.946
1695.52	119.69
1696.43	119.263
1697.34	118.607
1698.26	118.702
1699.17	118.438
1700.08	118.833
1700.99	119.182
1701.91	119.345
1702.82	119.697
1703.73	119.75
1704.64	120.406
1705.55	120.88
1706.47	121.398
1707.38	121.791
1708.29	122.077
1709.2	121.588
1710.11	121.198
1711.02	120.857
1711.93	120.623
1712.84	121.897
1713.75	120.639
1714.66	119.223
1715.57	117.859
1716.48	116.167
1717.39	114.452
1718.29	113.505
1719.2	113.164
1720.11	113.436
1721.02	114.014
1721.93	115.136
1722.83	117.203
1723.74	116.507
1724.65	116.164
1725.55	116.46
1726.46	117.024
1727.37	117.34
1728.27	117.706
1729.18	118.276
1730.08	118.08
1730.99	117.473
1731.89	116.979
1732.8	116.499
1733.7	116.097
1734.61	115.709
1735.51	115.353
1736.42	115.026
1737.32	114.707
1738.22	114.44
1739.13	114.039
1740.03	113.691
1740.93	113.195
1741.83	112.671
1742.74	112.067
1743.64	111.503
1744.54	110.922
1745.44	110.291
1746.34	109.823
1747.24	109.53
1748.15	110.469
1749.05	112.07
1749.95	112.758
1750.85	112.594
1751.75	112.531
1752.65	112.733
1753.55	112.908
1754.45	112.61
1755.35	112.299
1756.25	112.235
1757.14	112.485
1758.04	112.136
1758.94	111.926
1759.84	110.811
1760.74	109.789
1761.63	108.999
1762.53	108.266
1763.43	107.523
1764.33	106.988
1765.22	106.435
1766.12	106.324
1767.02	106.063
1767.91	106.221
1768.81	106.672
1769.7	106.94
1770.6	107.239
1771.49	107.603
1772.39	108.003
1773.28	108.413
1774.18	108.866
1775.07	109.299
1775.97	109.771
1776.86	109.856
1777.75	110.133
1778.65	110.372
1779.54	110.54
1780.43	109.976
1781.33	109.771
1782.22	109.225
1783.11	108.786
1784	108.287
1784.89	108.227
1785.79	107.901
1786.68	107.589
1787.57	107.292
1788.46	107.009
1789.35	106.708
1790.24	106.731
1791.13	106.469
1792.02	106.41
1792.91	106.011
1793.8	105.486
1794.69	104.183
1795.58	102.856
1796.47	101.648
1797.36	101.383
1798.25	100.769
1799.13	99.7479
