Acq. time (s)=	15
Accumulations=	2
Range (cm-¹)=	600...1800
Windows=	2
Autofocus=	Off
AutoExposure=	On
Spike filter=	Multiple accum.
Delay time (s)=	1
Binning=	1
Readout mode=	Signal
DeNoise=	Standard
ICS correction=	Off
Dark correction=	Off
Inst. Process=	Off
Instrument=	XploRA
Detector=	Syncerity
Objective=	x20LWD
Grating=	1200 gr/mm
Filter=	25%
Laser (nm)=	785 
Slit (µm)=	100 
Hole (µm)=	300 
Laser pol=	None
Raman pol=	None
Output=	Camera
StageXY=	Marzhauser
StageZ=	
X (µm)=	5402.7
Y (µm)=	3836.1
Project=	
Sample=	
Site=	
Title=	To11-T
Remark=	
Date=	15.10.2022 18:05
Acquired=	15.10.2022 18:05:56
600.787	699.862
601.956	710.747
603.126	723.512
604.294	733.537
605.463	743.61
606.631	753.13
607.8	762.156
608.967	770.364
610.135	777.615
611.302	783.613
612.468	788.088
613.635	792.168
614.802	795.869
615.968	799.888
617.133	804.416
618.299	809.39
619.464	814.654
620.629	819.973
621.793	825.238
622.958	830.51
624.121	835.574
625.285	840.36
626.448	845.877
627.612	851.395
628.774	856.351
629.937	860.742
631.099	864.397
632.261	867.36
633.423	869.334
634.584	870.375
635.745	870.773
636.906	870.719
638.066	870.327
639.227	869.982
640.386	869.539
641.546	869.063
642.705	868.476
643.864	867.75
645.023	866.552
646.181	864.404
647.339	861.282
648.497	858.264
649.655	855.403
650.812	853.106
651.969	851.321
653.125	850.109
654.282	849.431
655.438	850
656.593	852.695
657.75	858.864
658.905	863.812
660.059	869.775
661.214	874.342
662.368	877.478
663.522	879.522
664.676	880.849
665.83	881.245
666.983	880.744
668.136	879.322
669.288	876.957
670.441	874.637
671.592	873.667
672.744	873.84
673.895	874.755
675.046	876.329
676.197	878.597
677.348	881.57
678.498	884.942
679.648	888.952
680.798	892.452
681.947	895.082
683.096	896.426
684.245	896.567
685.394	895.402
686.542	893.495
687.69	890.131
688.837	886.181
689.984	881.509
691.132	877.146
692.278	874.322
693.425	872.784
694.571	872.638
695.717	872.788
696.863	873.216
698.008	873.976
699.152	875.067
700.298	875.493
701.442	875.719
702.586	875.778
703.73	875.526
704.873	875.106
706.017	874.621
707.16	874.04
708.302	873.437
709.445	872.874
710.586	872.174
711.729	871.417
712.87	870.627
714.012	869.821
715.152	868.949
716.293	868.059
717.433	866.997
718.573	866.097
719.713	865.091
720.853	864.063
721.991	862.933
723.131	861.62
724.269	860.12
725.408	858.409
726.545	855.59
727.683	852.74
728.821	850.173
729.958	849.847
731.095	851.774
732.231	851.121
733.368	852.677
734.503	855.362
735.639	859.629
736.775	865.906
737.91	873.129
739.045	880.864
740.179	888.015
741.313	895.559
742.447	902.217
743.581	905.757
744.714	908.603
745.847	898.374
746.98	894.966
748.113	889.403
749.245	885.249
750.377	881.807
751.509	877.359
752.64	870.586
753.771	863.536
754.902	857.068
756.033	850.701
757.163	844.513
758.293	838.673
759.423	833.282
760.551	828.443
761.681	824.068
762.81	820.348
763.938	817.335
765.066	814.968
766.194	813.293
767.321	811.608
768.449	808.711
769.576	805.988
770.703	803.734
771.83	801.554
772.955	797.474
774.081	793.641
775.207	791.013
776.332	788.961
777.457	787.127
778.582	785.068
779.707	783.079
780.831	781.07
781.954	779.017
783.078	776.747
784.201	774.319
785.324	771.791
786.447	769.334
787.569	766.791
788.691	764.347
789.813	761.619
790.935	758.773
792.056	755.838
793.177	752.789
794.297	749.658
795.418	746.393
796.539	743.216
797.658	739.484
798.777	735.717
799.897	732.107
801.016	728.654
802.134	726.502
803.253	724.549
804.371	723.156
805.489	722.17
806.606	721.696
807.723	722.1
808.84	722.541
809.957	722.938
811.073	722.119
812.19	721.11
813.305	719.537
814.421	717.485
815.536	714.822
816.651	711.323
817.766	707.131
818.88	705.854
819.994	704.677
821.108	704.552
822.221	704.764
823.335	705.544
824.448	706.676
825.56	708.019
826.673	709.71
827.784	711.429
828.897	713.198
830.008	715.698
831.119	718.13
832.23	719.108
833.341	718.312
834.451	714.743
835.561	708.679
836.671	704.09
837.78	700.554
838.89	697.737
839.998	695.651
841.108	698.937
842.216	699.074
843.324	694.158
844.431	693.898
845.539	694.048
846.646	694.243
847.753	694.314
848.859	694.259
849.966	694.045
851.071	693.643
852.178	692.915
853.283	691.937
854.388	690.074
855.494	685.884
856.598	681.154
857.703	677.539
858.806	675.054
859.91	673.426
861.014	670.702
862.116	668.294
863.22	666.392
864.322	665.128
865.425	664.842
866.527	664.623
867.628	664.015
868.73	662.283
869.831	660.509
870.932	658.289
872.032	655.835
873.133	652.975
874.233	646.55
875.333	643.652
876.432	640.606
877.532	638.869
878.631	637.458
879.729	636.32
880.828	635.185
881.926	634.151
883.023	633.254
884.121	632.49
885.218	631.663
886.315	631.421
887.412	631.275
888.508	631.36
889.604	631.521
890.699	631.746
891.795	632.062
892.89	632.329
893.985	632.587
895.08	632.424
896.174	632.545
897.268	632.856
898.362	633.24
899.456	634.832
900.549	635.419
901.642	634.501
902.734	632.828
903.827	628.344
904.919	624.459
906.011	621.835
907.102	620.649
908.193	620.86
909.284	622.878
910.375	626.29
911.465	630.545
912.555	634.704
913.645	640.017
914.734	642.472
915.824	642.63
916.913	640.234
918.001	638.437
919.09	635.863
920.177	632.908
921.266	629.648
922.353	626.217
923.44	622.61
924.527	619.031
925.614	615.39
926.7	611.511
927.786	607.725
928.873	603.867
929.958	600.124
931.043	597.242
932.128	595.369
933.213	592.439
934.297	589.101
935.381	585.326
936.465	581.486
937.549	577.866
938.632	574.987
939.715	572.762
940.798	571.662
941.881	570.331
942.962	566.876
944.044	563.538
945.125	561.083
946.207	558.921
947.288	556.696
948.368	554.712
949.449	554.774
950.529	556.15
951.61	557.826
952.689	559.413
953.769	560.766
954.847	561.998
955.926	562.725
957.004	563.539
958.082	564.009
959.16	564.14
960.238	563.898
961.316	563.208
962.392	561.781
963.469	559.813
964.546	556.8
965.622	553.566
966.698	550.398
967.774	548.139
968.849	547.102
969.924	546.53
970.998	546.523
972.073	547.033
973.148	547.664
974.221	548.14
975.295	549.359
976.369	551.031
977.441	551.401
978.514	551.972
979.587	553.58
980.659	555.928
981.731	558.968
982.802	561.788
983.874	565.139
984.945	568.126
986.016	570.367
987.087	571.676
988.157	571.881
989.227	571.527
990.296	570.62
991.366	568.878
992.435	566.552
993.504	564.001
994.573	561.509
995.641	559.224
996.709	557.26
997.777	555.709
998.844	554.326
999.911	553.039
1000.98	551.774
1002.05	550.468
1003.11	548.932
1004.18	546.894
1005.24	544.748
1006.31	542.274
1007.37	539.419
1008.44	535.917
1009.5	531.822
1010.57	527.3
1011.63	522.7
1012.7	518.274
1013.76	514.516
1014.82	511.574
1015.89	509.381
1016.95	507.406
1018.01	505.472
1019.07	503.257
1020.13	501.104
1021.2	498.565
1022.26	495.892
1023.32	493.18
1024.38	490.492
1025.44	487.919
1026.5	485.423
1027.56	483.051
1028.62	481.326
1029.68	480.092
1030.74	479.226
1031.8	478.98
1032.85	479.369
1033.91	479.996
1034.97	480.879
1036.03	482.144
1037.09	483.605
1038.14	485.705
1039.2	487.731
1040.26	489.678
1041.31	491.196
1042.37	492.073
1043.42	492.477
1044.48	492.534
1045.53	492.155
1046.59	491.297
1047.64	490.022
1048.7	488.191
1049.75	485.654
1050.81	482.633
1051.86	479.235
1052.91	475.439
1053.97	471.627
1055.02	468.082
1056.07	464.977
1057.12	462.337
1058.17	460.961
1059.23	459.953
1060.28	459.627
1061.33	459.962
1062.38	460.716
1063.43	462.184
1064.48	464.136
1065.53	466.107
1066.58	468.117
1067.63	470.01
1068.68	471.448
1069.72	472.186
1070.77	472.544
1071.82	472.259
1072.87	471.35
1073.92	469.909
1074.96	467.433
1076.01	464.553
1077.06	461.34
1078.1	457.667
1079.15	454.41
1080.2	451.326
1081.24	448.471
1082.29	446.271
1083.33	444.786
1084.38	443.619
1085.42	442.763
1086.47	442.251
1087.51	441.904
1088.55	441.302
1089.6	441.237
1090.64	441.424
1091.68	441.632
1092.73	441.586
1093.77	441.008
1094.81	440.235
1095.85	439.356
1096.89	438.558
1097.93	438.061
1098.98	437.623
1100.02	438.098
1101.06	439.226
1102.1	440.355
1103.14	441.205
1104.18	441.06
1105.21	440.725
1106.25	440.224
1107.29	439.487
1108.33	438.568
1109.37	437.537
1110.41	436.44
1111.44	435.239
1112.48	433.91
1113.52	432.59
1114.56	431.17
1115.59	429.699
1116.63	428.102
1117.66	426.403
1118.7	424.69
1119.73	422.912
1120.77	421.198
1121.8	419.404
1122.84	417.499
1123.87	415.438
1124.91	413.257
1125.94	411.063
1126.97	408.912
1128.01	407.161
1129.04	406.485
1130.07	407.019
1131.11	408.883
1132.14	412.19
1133.17	414.966
1134.2	418.198
1135.23	424.035
1136.26	427.869
1137.29	432.146
1138.32	437.275
1139.35	441.336
1140.38	444.795
1141.41	447.775
1142.44	450.458
1143.47	453.03
1144.5	455.575
1145.53	457.945
1146.56	459.994
1147.58	462.14
1148.61	463.47
1149.64	467.207
1150.67	470.787
1151.69	474.635
1152.72	477.927
1153.75	481.079
1154.77	484.522
1155.8	489.231
1156.82	494.527
1157.85	490.098
1158.87	482.976
1159.9	473.97
1160.92	463.403
1161.95	452.309
1162.97	440.815
1163.99	430.771
1165.02	423.554
1166.04	418.144
1167.06	414.022
1168.08	410.601
1169.11	408.056
1170.13	406.507
1171.15	405.684
1172.17	405.691
1173.19	406.336
1174.21	407.55
1175.23	409.441
1176.25	412.029
1177.27	415.355
1178.29	418.818
1179.31	422.106
1180.33	424.871
1181.35	427.283
1182.37	429.207
1183.39	430.746
1184.4	431.81
1185.42	432.439
1186.44	432.463
1187.46	431.806
1188.47	431.114
1189.49	429.837
1190.51	425.974
1191.52	421.061
1192.54	414.814
1193.55	408.364
1194.57	402.098
1195.58	396.08
1196.6	391.378
1197.61	387.17
1198.63	387.186
1199.64	385.208
1200.65	383.438
1201.67	382.034
1202.68	381.383
1203.69	380.81
1204.7	380.912
1205.72	381.28
1206.73	381.628
1207.74	381.628
1208.75	381.63
1209.76	381.546
1210.77	381.01
1211.78	380.544
1212.79	380.244
1213.8	380.406
1214.81	382.336
1215.82	384.134
1216.83	386.223
1217.84	388.095
1218.85	389.673
1219.86	390.835
1220.87	391.381
1221.87	391.332
1222.88	390.852
1223.89	389.976
1224.9	388.743
1225.9	387.201
1226.91	384.965
1227.92	382.454
1228.92	379.194
1229.93	375.847
1230.93	372.426
1231.94	369.07
1232.94	366.248
1233.95	363.32
1234.95	360.646
1235.95	357.962
1236.96	355.27
1237.96	352.762
1238.96	350.336
1239.97	348.013
1240.97	345.808
1241.97	343.696
1242.97	341.677
1243.98	339.786
1244.98	337.997
1245.98	336.028
1246.98	334.089
1247.98	332.193
1248.98	330.48
1249.98	329.836
1250.98	330.136
1251.98	330.444
1252.98	330.899
1253.98	331.437
1254.98	331.865
1255.98	332.22
1256.97	332.661
1257.97	333.266
1258.97	333.895
1259.97	334.494
1260.97	334.972
1261.96	335.298
1262.96	335.486
1263.95	335.368
1264.95	334.875
1265.95	334.032
1266.94	332.594
1267.94	330.717
1268.93	328.69
1269.93	326.443
1270.92	324.309
1271.92	323.158
1272.91	321.807
1273.9	320.665
1274.9	319.831
1275.89	319.476
1276.88	319.733
1277.87	320.324
1278.87	321.41
1279.86	322.905
1280.85	325.019
1281.84	327.137
1282.83	328.994
1283.82	330.009
1284.81	330.565
1285.81	330.235
1286.8	329.418
1287.79	328.414
1288.77	327.136
1289.76	325.745
1290.75	324.725
1291.74	323.592
1292.73	321.582
1293.72	319.511
1294.71	317.44
1295.69	315.412
1296.68	313.457
1297.67	311.831
1298.65	310.428
1299.64	309.195
1300.63	308.051
1301.61	307.016
1302.6	306.035
1303.58	305.164
1304.57	304.37
1305.55	303.67
1306.54	302.992
1307.52	302.539
1308.51	302.154
1309.49	301.744
1310.48	301.201
1311.46	300.012
1312.44	297.218
1313.42	294.746
1314.41	293.427
1315.39	292.919
1316.37	293.717
1317.35	295.144
1318.33	297.082
1319.32	299.172
1320.3	305.074
1321.28	312.126
1322.26	319.389
1323.24	328.096
1324.22	335.933
1325.2	341.095
1326.18	344.525
1327.15	346.302
1328.13	346.61
1329.11	340.416
1330.09	332.727
1331.07	326.844
1332.05	322.12
1333.02	317.809
1334	313.54
1334.98	308.607
1335.95	303.794
1336.93	299.293
1337.91	295.328
1338.88	291.962
1339.86	289.606
1340.83	287.773
1341.81	286.119
1342.78	284.368
1343.76	282.367
1344.73	280.708
1345.7	279.344
1346.68	278.127
1347.65	277.16
1348.62	276.413
1349.6	275.813
1350.57	276.383
1351.54	277.15
1352.51	277.879
1353.49	278.552
1354.46	278.614
1355.43	278.271
1356.4	277.382
1357.37	276.279
1358.34	274.69
1359.31	272.811
1360.28	270.719
1361.25	268.365
1362.22	265.965
1363.19	263.339
1364.16	261.192
1365.12	259.223
1366.09	257.856
1367.06	257.139
1368.03	256.331
1369	257.544
1369.96	259.073
1370.93	260.713
1371.9	262.369
1372.86	263.351
1373.83	264.342
1374.79	265.097
1375.76	265.71
1376.73	266.11
1377.69	266.346
1378.66	266.308
1379.62	266.091
1380.58	265.867
1381.55	265.156
1382.51	264.328
1383.48	263.402
1384.44	262.436
1385.4	261.509
1386.36	261.27
1387.33	260.865
1388.29	260.365
1389.25	260.123
1390.21	259.901
1391.17	259.631
1392.13	259.303
1393.09	259.001
1394.06	258.497
1395.01	257.752
1395.97	256.66
1396.93	255.192
1397.89	253.803
1398.85	252.302
1399.81	250.732
1400.77	248.997
1401.73	247.258
1402.69	245.543
1403.64	244.031
1404.6	242.606
1405.56	241.392
1406.52	240.311
1407.47	239.69
1408.43	239.492
1409.39	239.307
1410.34	239.041
1411.3	238.683
1412.25	237.403
1413.21	235.912
1414.16	233.966
1415.12	232.081
1416.07	232.958
1417.03	234.66
1417.98	237.158
1418.93	240.022
1419.89	244.396
1420.84	246.916
1421.79	248.623
1422.74	247.416
1423.7	245.744
1424.65	244.197
1425.6	242.985
1426.55	242.43
1427.5	242.171
1428.45	242.124
1429.4	242.288
1430.35	242.599
1431.3	243.079
1432.25	243.725
1433.2	244.417
1434.15	244.92
1435.1	245.361
1436.05	246.288
1437	247.239
1437.95	248.141
1438.89	248.918
1439.84	249.26
1440.79	248.556
1441.74	247.745
1442.68	246.614
1443.63	245.36
1444.58	243.771
1445.52	242.122
1446.47	240.449
1447.41	237.795
1448.36	235.173
1449.3	233.12
1450.25	231.689
1451.19	230.635
1452.14	229.908
1453.08	230.224
1454.03	230.905
1454.97	231.895
1455.91	232.907
1456.85	233.763
1457.8	234.243
1458.74	234.471
1459.68	234.386
1460.62	233.895
1461.57	233.139
1462.51	231.61
1463.45	229.383
1464.39	226.696
1465.33	223.96
1466.27	221.067
1467.21	218.534
1468.15	216.272
1469.09	214.344
1470.03	212.904
1470.97	211.956
1471.9	211.477
1472.84	211.56
1473.78	212.149
1474.72	213.495
1475.66	215.426
1476.59	217.493
1477.53	219.531
1478.47	221.132
1479.4	222.118
1480.34	222.55
1481.28	222.826
1482.21	222.695
1483.15	222.455
1484.08	222.005
1485.02	221.504
1485.95	221.321
1486.89	221.571
1487.82	221.742
1488.76	221.596
1489.69	220.954
1490.62	219.942
1491.56	218.756
1492.49	217.422
1493.42	215.545
1494.35	213.767
1495.29	212.331
1496.22	212.925
1497.15	214.519
1498.08	216.311
1499.01	214.752
1499.94	213.796
1500.87	213.021
1501.8	212.58
1502.73	212.363
1503.66	212.458
1504.59	212.933
1505.52	213.565
1506.45	214.981
1507.38	216.686
1508.31	218.46
1509.23	220.327
1510.16	221.676
1511.09	222.904
1512.02	224.841
1512.94	227.805
1513.87	232.614
1514.8	238.986
1515.72	246.792
1516.65	254.853
1517.58	262.331
1518.5	269.169
1519.43	275.674
1520.35	281.883
1521.28	287.694
1522.2	293.299
1523.12	298.194
1524.05	302.266
1524.97	305.467
1525.9	307.36
1526.82	308.069
1527.74	307.589
1528.66	305.989
1529.59	303.328
1530.51	299.721
1531.43	295.319
1532.35	290.169
1533.27	284.904
1534.19	278.996
1535.11	272.187
1536.04	265.483
1536.96	259.066
1537.88	252.915
1538.8	247.109
1539.71	241.823
1540.63	237.161
1541.55	233.226
1542.47	229.899
1543.39	227.079
1544.31	224.559
1545.23	222.756
1546.14	221.649
1547.06	221.109
1547.98	221.058
1548.89	221.414
1549.81	222.159
1550.73	223.144
1551.64	223.52
1552.56	224.101
1553.47	225.186
1554.39	223.274
1555.31	221.023
1556.22	218.221
1557.13	214.754
1558.05	210.927
1558.96	207.12
1559.88	203.694
1560.79	200.354
1561.7	197.257
1562.62	194.642
1563.53	192.237
1564.44	191.061
1565.35	190.792
1566.27	190.963
1567.18	190.606
1568.09	190.613
1569	190.633
1569.91	190.95
1570.82	191.321
1571.73	191.19
1572.64	191.363
1573.55	192.007
1574.46	192.636
1575.37	193.255
1576.28	194.063
1577.19	195.016
1578.1	195.884
1579	196.717
1579.91	197.62
1580.82	198.289
1581.73	198.29
1582.63	198.116
1583.54	198.063
1584.45	197.725
1585.35	197.163
1586.26	196.716
1587.17	196.421
1588.07	196.313
1588.98	196.349
1589.88	196.345
1590.79	196.606
1591.69	197.193
1592.6	194.452
1593.5	193.983
1594.4	195.497
1595.31	198.196
1596.21	199.102
1597.11	199.17
1598.02	198.022
1598.92	197.518
1599.82	198.24
1600.72	199.351
1601.63	199.635
1602.53	199.69
1603.43	201.006
1604.33	202.615
1605.23	203.594
1606.13	204.648
1607.03	205.818
1607.93	207.081
1608.83	207.765
1609.73	208.194
1610.63	208.177
1611.53	207.762
1612.43	207.278
1613.32	206.114
1614.22	204.541
1615.12	203.305
1616.02	202.042
1616.92	200.615
1617.81	199.061
1618.71	197.845
1619.61	197.161
1620.5	197.155
1621.4	197.662
1622.29	198.59
1623.19	199.403
1624.08	199.893
1624.98	200.324
1625.87	200.742
1626.77	201.297
1627.66	201.568
1628.56	200.916
1629.45	199.716
1630.34	198.278
1631.24	197.158
1632.13	196.16
1632.84	195.679
1633.77	194.722
1634.7	193.966
1635.63	193.278
1636.56	193.052
1637.49	193.447
1638.42	194.374
1639.34	194.7
1640.27	192.352
1641.2	191.118
1642.13	190.359
1643.05	190.31
1643.98	190.477
1644.91	191.312
1645.83	193.055
1646.76	195.109
1647.68	196.612
1648.61	197.473
1649.54	196.644
1650.46	195.631
1651.39	194.579
1652.31	193.48
1653.23	192.683
1654.16	192.288
1655.08	191.052
1656.01	190.657
1656.93	190.29
1657.85	190.727
1658.78	190.235
1659.7	190.395
1660.62	190.901
1661.54	191.737
1662.47	193.258
1663.39	192.951
1664.31	192.457
1665.23	192.603
1666.15	192.801
1667.07	193.34
1667.99	192.93
1668.92	192.651
1669.84	192.707
1670.76	193.019
1671.68	192.94
1672.6	194.485
1673.52	193.529
1674.43	192.125
1675.35	190.35
1676.27	188.567
1677.19	186.688
1678.11	187.199
1679.03	186.649
1679.95	185.718
1680.86	185.091
1681.78	183.823
1682.7	182.273
1683.61	180.966
1684.53	179.941
1685.45	179.103
1686.36	178.597
1687.28	178.182
1688.2	178.223
1689.11	178.881
1690.03	179.285
1690.94	179.545
1691.86	179.74
1692.77	180.103
1693.69	180.875
1694.6	181.107
1695.52	181.275
1696.43	177.921
1697.34	177.643
1698.26	177.857
1699.17	178.361
1700.08	177.92
1700.99	176.687
1701.91	175.791
1702.82	174.635
1703.73	173.503
1704.64	172.879
1705.55	172.796
1706.47	172.891
1707.38	172.85
1708.29	172.572
1709.2	171.972
1710.11	171.439
1711.02	170.264
1711.93	169.2
1712.84	167.901
1713.75	166.767
1714.66	166.079
1715.57	164.928
1716.48	164.136
1717.39	163.907
1718.29	163.9
1719.2	164.8
1720.11	165.917
1721.02	166.308
1721.93	166.69
1722.83	167.54
1723.74	168.261
1724.65	168.298
1725.55	167.719
1726.46	166.344
1727.37	165.102
1728.27	163.139
1729.18	161.156
1730.08	160.065
1730.99	159.154
1731.89	158.614
1732.8	158.917
1733.7	158.629
1734.61	158.773
1735.51	159.534
1736.42	160.417
1737.32	161.271
1738.22	161.5
1739.13	162.201
1740.03	162.266
1740.93	161.915
1741.83	161.049
1742.74	160.117
1743.64	160.195
1744.54	159.891
1745.44	160.665
1746.34	161.649
1747.24	163.228
1748.15	165.791
1749.05	167.004
1749.95	166.294
1750.85	166.069
1751.75	165.104
1752.65	164.635
1753.55	164.014
1754.45	163.267
1755.35	162.184
1756.25	160.769
1757.14	159.667
1758.04	158.87
1758.94	157.539
1759.84	156.795
1760.74	156.262
1761.63	156.659
1762.53	157.41
1763.43	157.877
1764.33	158.428
1765.22	158.738
1766.12	158.711
1767.02	158.744
1767.91	158.301
1768.81	157.516
1769.7	155.395
1770.6	154.483
1771.49	153.934
1772.39	152.454
1773.28	151.877
1774.18	151.687
1775.07	151.622
1775.97	152.151
1776.86	152.856
1777.75	152.934
1778.65	152.706
1779.54	152.548
1780.43	152.613
1781.33	152.984
1782.22	152.621
1783.11	152.499
1784	151.934
1784.89	150.947
1785.79	149.895
1786.68	148.802
1787.57	147.56
1788.46	147.193
1789.35	147.356
1790.24	146.984
1791.13	146.914
1792.02	146.296
1792.91	145.856
1793.8	145.331
1794.69	144.923
1795.58	144.585
1796.47	144.603
1797.36	144.367
1798.25	145.79
1799.13	148.222
