Acq. time (s)=	15
Accumulations=	2
Range (cm-¹)=	600...1800
Windows=	2
Autofocus=	Off
AutoExposure=	On
Spike filter=	Multiple accum.
Delay time (s)=	1
Binning=	1
Readout mode=	Signal
DeNoise=	Standard
ICS correction=	Off
Dark correction=	Off
Inst. Process=	Off
Instrument=	XploRA
Detector=	Syncerity
Objective=	x20LWD
Grating=	1200 gr/mm
Filter=	25%
Laser (nm)=	785 
Slit (µm)=	100 
Hole (µm)=	300 
Laser pol=	None
Raman pol=	None
Output=	Camera
StageXY=	Marzhauser
StageZ=	
X (µm)=	4925.2
Y (µm)=	-804.1
Project=	
Sample=	
Site=	
Title=	To9-T
Remark=	
Date=	14.10.2022 23:59
Acquired=	14.10.2022 23:59:24
600.787	1332.87
601.956	1359.84
603.126	1385.05
604.294	1408.04
605.463	1423.93
606.631	1437.43
607.8	1437.93
608.967	1451.1
610.135	1484.66
611.302	1501.77
612.468	1468.89
613.635	1487.07
614.802	1503.53
615.968	1522.45
617.133	1535.09
618.299	1551.29
619.464	1557.36
620.629	1563.17
621.793	1568.81
622.958	1574.29
624.121	1579.24
625.285	1583.83
626.448	1587.97
627.612	1591.26
628.774	1593.88
629.937	1596.01
631.099	1597.95
632.261	1599.91
633.423	1601.98
634.584	1604.3
635.745	1607.08
636.906	1610.18
638.066	1613.76
639.227	1617.99
640.386	1622.64
641.546	1627.66
642.705	1633.08
643.864	1639.37
645.023	1645.65
646.181	1651.57
647.339	1655.96
648.497	1658.49
649.655	1659.52
650.812	1660.22
651.969	1660.49
653.125	1662.11
654.282	1664.08
655.438	1665.44
656.593	1662.52
657.75	1663.08
658.905	1665.55
660.059	1670.47
661.214	1677.35
662.368	1685.19
663.522	1693.1
664.676	1698.81
665.83	1702.93
666.983	1707.77
668.136	1711.33
669.288	1717.68
670.441	1724.48
671.592	1731.07
672.744	1735.96
673.895	1734.05
675.046	1732.99
676.197	1732.22
677.348	1730.86
678.498	1729.51
679.648	1728.99
680.798	1729.14
681.947	1729.96
683.096	1731.82
684.245	1734.07
685.394	1736.81
686.542	1739.72
687.69	1743.3
688.837	1747.36
689.984	1752.41
691.132	1759.92
692.278	1766.94
693.425	1772.39
694.571	1774.92
695.717	1775.44
696.863	1774.77
698.008	1773.12
699.152	1771.05
700.298	1768.11
701.442	1764.76
702.586	1761.38
703.73	1758.45
704.873	1756.17
706.017	1754.12
707.16	1752.44
708.302	1751.97
709.445	1752.32
710.586	1753.04
711.729	1754.29
712.87	1755.57
714.012	1756.62
715.152	1752.36
716.293	1745.94
717.433	1741.09
718.573	1737.2
719.713	1734.29
720.853	1734.29
721.991	1733.74
723.131	1734.28
724.269	1734.25
725.408	1734.87
726.545	1735.92
727.683	1733.19
728.821	1730.65
729.958	1728.72
731.095	1730.22
732.231	1724.43
733.368	1731.3
734.503	1743.3
735.639	1756.45
736.775	1763.27
737.91	1772.55
739.045	1782.15
740.179	1793.43
741.313	1804.37
742.447	1810.3
743.581	1814.72
744.714	1803.47
745.847	1791.33
746.98	1772.6
748.113	1761.05
749.245	1750.56
750.377	1740.13
751.509	1731.1
752.64	1725.42
753.771	1720.76
754.902	1713.81
756.033	1706.63
757.163	1699.31
758.293	1691.87
759.423	1684.4
760.551	1677.21
761.681	1670.17
762.81	1661.86
763.938	1653.29
765.066	1645
766.194	1637.21
767.321	1630.57
768.449	1624.76
769.576	1619.36
770.703	1615.1
771.83	1611.4
772.955	1608.02
774.081	1604.96
775.207	1601.84
776.332	1598.21
777.457	1593.6
778.582	1589.19
779.707	1584.43
780.831	1579.86
781.954	1575.33
783.078	1572.01
784.201	1567.8
785.324	1554.92
786.447	1547.47
787.569	1541.65
788.691	1536.52
789.813	1532.11
790.935	1528.23
792.056	1524.87
793.177	1521.72
794.297	1518.8
795.418	1515.85
796.539	1512.84
797.658	1509.36
798.777	1505.21
799.897	1501.2
801.016	1497.03
802.134	1492.83
803.253	1488.77
804.371	1484.9
805.489	1481.6
806.606	1478.64
807.723	1475.9
808.84	1473.31
809.957	1470.74
811.073	1468.19
812.19	1465.62
813.305	1462.97
814.421	1460.39
815.536	1457.85
816.651	1455.31
817.766	1452.73
818.88	1450
819.994	1447.22
821.108	1444.42
822.221	1441.77
823.335	1439.37
824.448	1437.17
825.56	1435.29
826.673	1433.63
827.784	1433.49
828.897	1433.97
830.008	1434.81
831.119	1435.63
832.23	1436.32
833.341	1435.62
834.451	1435.66
835.561	1435.67
836.671	1435.65
837.78	1435.13
838.89	1433.95
839.998	1432.38
841.108	1430.06
842.216	1426.94
843.324	1423.41
844.431	1419.58
845.539	1415.7
846.646	1411.97
847.753	1408.53
848.859	1406.75
849.966	1405.85
851.071	1404.77
852.178	1403.05
853.283	1399.74
854.388	1395.44
855.494	1390.47
856.598	1385.04
857.703	1379.04
858.806	1372.56
859.91	1366
861.014	1358.17
862.116	1350.5
863.22	1342.89
864.322	1335.73
865.425	1329.94
866.527	1325.55
867.628	1322.1
868.73	1319.67
869.831	1320.06
870.932	1321.03
872.032	1322.47
873.133	1323.75
874.233	1323.25
875.333	1321.94
876.432	1319.87
877.532	1317.45
878.631	1314.66
879.729	1311.38
880.828	1307.9
881.926	1304.59
883.023	1300.8
884.121	1297.11
885.218	1293.44
886.315	1289.84
887.412	1286.91
888.508	1284.32
889.604	1283.5
890.699	1283.45
891.795	1283.54
892.89	1283.29
893.985	1282.01
895.08	1280.64
896.174	1277.45
897.268	1274.29
898.362	1270.98
899.456	1267.94
900.549	1266.46
901.642	1266.31
902.734	1266.62
903.827	1266.79
904.919	1267.15
906.011	1267.66
907.102	1269.26
908.193	1272.07
909.284	1276.59
910.375	1282.33
911.465	1288.66
912.555	1294.54
913.645	1298.79
914.734	1301.52
915.824	1302.47
916.913	1301.7
918.001	1298.4
919.09	1292.77
920.177	1285.45
921.266	1276.94
922.353	1267.45
923.44	1257.73
924.527	1246.81
925.614	1235.83
926.7	1225.26
927.786	1215.66
928.873	1207.03
929.958	1199.62
931.043	1193.02
932.128	1187.41
933.213	1182.23
934.297	1177.42
935.381	1172.87
936.465	1168.44
937.549	1164.26
938.632	1160.16
939.715	1157.35
940.798	1155.08
941.881	1153.53
942.962	1152.51
944.044	1151.98
945.125	1151.87
946.207	1152.02
947.288	1152.43
948.368	1153.11
949.449	1154.1
950.529	1155.27
951.61	1156.95
952.689	1158.34
953.769	1161.16
954.847	1158.73
955.926	1153.55
957.004	1147.52
958.082	1139.82
959.16	1133.02
960.238	1127.21
961.316	1123.46
962.392	1122.65
963.469	1123.57
964.546	1125.85
965.622	1130.45
966.698	1121.57
967.774	1118.4
968.849	1115.96
969.924	1114.39
970.998	1112.31
972.073	1110.73
973.148	1109.33
974.221	1108.45
975.295	1108.25
976.369	1110.32
977.441	1125.83
978.514	1144.75
979.587	1161.44
980.659	1171.88
981.731	1176.31
982.802	1175.04
983.874	1175.1
984.945	1175.11
986.016	1174.16
987.087	1171.6
988.157	1169.03
989.227	1165.8
990.296	1162.7
991.366	1162.23
992.435	1162.36
993.504	1160.75
994.573	1158.51
995.641	1155.46
996.709	1151.75
997.777	1147.43
998.844	1142.91
999.911	1136.99
1000.98	1130.48
1002.05	1123.58
1003.11	1116.44
1004.18	1109.16
1005.24	1102.61
1006.31	1096.88
1007.37	1090.93
1008.44	1085.28
1009.5	1079.52
1010.57	1073.85
1011.63	1068.13
1012.7	1062.33
1013.76	1056.38
1014.82	1050.47
1015.89	1044.33
1016.95	1038.27
1018.01	1032.18
1019.07	1025.96
1020.13	1020
1021.2	1014.15
1022.26	1008.47
1023.32	1003.53
1024.38	999.692
1025.44	996.246
1026.5	993.408
1027.56	990.039
1028.62	987.016
1029.68	984.032
1030.74	981.152
1031.8	978.836
1032.85	976.9
1033.91	975.416
1034.97	974.6
1036.03	974.224
1037.09	974.229
1038.14	975.062
1039.2	976.169
1040.26	977.94
1041.31	979.738
1042.37	981.421
1043.42	982.758
1044.48	983.558
1045.53	983.437
1046.59	982.951
1047.64	982.058
1048.7	980.526
1049.75	978.077
1050.81	975.058
1051.86	971.695
1052.91	968.069
1053.97	964.132
1055.02	961.379
1056.07	959.24
1057.12	957.388
1058.17	955.827
1059.23	954.352
1060.28	953.137
1061.33	951.929
1062.38	950.742
1063.43	949.434
1064.48	947.967
1065.53	946.432
1066.58	945.405
1067.63	944.342
1068.68	943.009
1069.72	941.582
1070.77	939.694
1071.82	936.78
1072.87	932.775
1073.92	928.938
1074.96	925.221
1076.01	922.058
1077.06	919.998
1078.1	917.795
1079.15	915.883
1080.2	914.032
1081.24	912.284
1082.29	910.485
1083.33	908.61
1084.38	906.621
1085.42	904.591
1086.47	902.626
1087.51	900.578
1088.55	898.602
1089.6	896.099
1090.64	893.418
1091.68	890.056
1092.73	886.53
1093.77	882.382
1094.81	878.087
1095.85	874.598
1096.89	872.112
1097.93	870.97
1098.98	870.187
1100.02	870.606
1101.06	871.427
1102.1	872.578
1103.14	874.216
1104.18	875.167
1105.21	875.93
1106.25	873.048
1107.29	871.733
1108.33	871.18
1109.37	871.744
1110.41	872.779
1111.44	873.782
1112.48	874.877
1113.52	875.76
1114.56	876.139
1115.59	875.783
1116.63	874.419
1117.66	872.044
1118.7	869.667
1119.73	863.201
1120.77	854.938
1121.8	848.888
1122.84	843.735
1123.87	839.661
1124.91	836.622
1125.94	834.845
1126.97	833.953
1128.01	834.045
1129.04	835.2
1130.07	837.455
1131.11	840.795
1132.14	845.314
1133.17	851.056
1134.2	857.983
1135.23	865.965
1136.26	875.227
1137.29	885.632
1138.32	897.03
1139.35	908.893
1140.38	920.293
1141.41	930.712
1142.44	941.923
1143.47	944.788
1144.5	941.943
1145.53	937.75
1146.56	928.021
1147.58	924.592
1148.61	925.225
1149.64	923.079
1150.67	931.207
1151.69	943.872
1152.72	956.903
1153.75	963.914
1154.77	979.278
1155.8	978.92
1156.82	974.788
1157.85	966.359
1158.87	952.935
1159.9	936.653
1160.92	919.597
1161.95	904.004
1162.97	889.439
1163.99	875.45
1165.02	863.346
1166.04	852.789
1167.06	844.398
1168.08	840.465
1169.11	837.606
1170.13	835.986
1171.15	834.903
1172.17	835.032
1173.19	835.95
1174.21	837.852
1175.23	840.499
1176.25	844.128
1177.27	848.539
1178.29	853.499
1179.31	858.791
1180.33	863.949
1181.35	869.029
1182.37	873.636
1183.39	877.745
1184.4	882.481
1185.42	884.788
1186.44	884.134
1187.46	881.346
1188.47	876.501
1189.49	869.471
1190.51	860.293
1191.52	848.854
1192.54	836.499
1193.55	823.84
1194.57	813.49
1195.58	804.008
1196.6	794.857
1197.61	787.075
1198.63	780.798
1199.64	772.865
1200.65	764.693
1201.67	758.815
1202.68	755.506
1203.69	753.861
1204.7	754.112
1205.72	755.83
1206.73	759.531
1207.74	764.806
1208.75	773.221
1209.76	778.044
1210.77	781.364
1211.78	783.803
1212.79	785.437
1213.8	786.778
1214.81	787.857
1215.82	786.336
1216.83	784.188
1217.84	781.757
1218.85	779.477
1219.86	778.107
1220.87	776.805
1221.87	775.805
1222.88	775.045
1223.89	774.498
1224.9	773.893
1225.9	773.061
1226.91	771.835
1227.92	770.16
1228.92	767.758
1229.93	764.626
1230.93	760.858
1231.94	756.541
1232.94	751.935
1233.95	746.641
1234.95	740.087
1235.95	733.238
1236.96	726.498
1237.96	719.899
1238.96	714.011
1239.97	708.524
1240.97	703.455
1241.97	698.886
1242.97	694.545
1243.98	690.452
1244.98	686.372
1245.98	682.659
1246.98	678.44
1247.98	674.499
1248.98	670.187
1249.98	666.308
1250.98	663.108
1251.98	660.546
1252.98	660.294
1253.98	659.231
1254.98	658.515
1255.98	658.609
1256.97	661.065
1257.97	665.378
1258.97	670.869
1259.97	677.019
1260.97	683.217
1261.96	688.014
1262.96	691.347
1263.95	692.807
1264.95	691.917
1265.95	688.155
1266.94	683.055
1267.94	675.893
1268.93	670.485
1269.93	664.955
1270.92	659.762
1271.92	654.78
1272.91	650.625
1273.9	647.497
1274.9	645.221
1275.89	644.199
1276.88	644.247
1277.87	645.957
1278.87	648.441
1279.86	652.218
1280.85	656.318
1281.84	660.544
1282.83	664.662
1283.82	667.696
1284.81	670.164
1285.81	671.511
1286.8	672.76
1287.79	673.173
1288.77	672.267
1289.76	667.973
1290.75	662.007
1291.74	654.529
1292.73	646.102
1293.72	637.336
1294.71	628.859
1295.69	621.648
1296.68	615.854
1297.67	612.127
1298.65	610.938
1299.64	613.345
1300.63	614.596
1301.61	615.471
1302.6	616.844
1303.58	618.967
1304.57	620.988
1305.55	623.548
1306.54	625.762
1307.52	627.195
1308.51	626.885
1309.49	624.248
1310.48	620.519
1311.46	618.293
1312.44	616.211
1313.42	614.383
1314.41	612.888
1315.39	611.833
1316.37	610.428
1317.35	608.88
1318.33	619.126
1319.32	630.235
1320.3	646.382
1321.28	660.518
1322.26	674.309
1323.24	687.293
1324.22	699.578
1325.2	709.874
1326.18	716.491
1327.15	716.317
1328.13	709.376
1329.11	683.057
1330.09	665.569
1331.07	646.3
1332.05	629.307
1333.02	613.859
1334	600.646
1334.98	589.917
1335.95	584.412
1336.93	583.778
1337.91	579.659
1338.88	575.936
1339.86	572.483
1340.83	571.044
1341.81	570.353
1342.78	570.029
1343.76	569.845
1344.73	569.333
1345.7	568.073
1346.68	567.376
1347.65	566.591
1348.62	566.45
1349.6	566.792
1350.57	567.012
1351.54	567.084
1352.51	566.845
1353.49	566.171
1354.46	564.734
1355.43	562.475
1356.4	559.389
1357.37	556.234
1358.34	552.843
1359.31	549.413
1360.28	546.056
1361.25	542.9
1362.22	540.153
1363.19	537.453
1364.16	534.87
1365.12	532.492
1366.09	530.418
1367.06	528.594
1368.03	527.054
1369	526.614
1369.96	526.972
1370.93	527.756
1371.9	528.566
1372.86	529.508
1373.83	529.761
1374.79	529.272
1375.76	528.495
1376.73	527.84
1377.69	527.245
1378.66	526.791
1379.62	526.522
1380.58	526.328
1381.55	526.059
1382.51	525.669
1383.48	525.587
1384.44	525.832
1385.4	526.425
1386.36	527.343
1387.33	528.351
1388.29	529.197
1389.25	529.562
1390.21	529.036
1391.17	528.111
1392.13	526.95
1393.09	525.175
1394.06	523.232
1395.01	521.119
1395.97	518.261
1396.93	514.96
1397.89	511.099
1398.85	507.063
1399.81	503.057
1400.77	499.323
1401.73	496.607
1402.69	494.291
1403.64	492.435
1404.6	490.908
1405.56	489.91
1406.52	489.206
1407.47	488.657
1408.43	488.276
1409.39	487.738
1410.34	487.942
1411.3	488.362
1412.25	488.623
1413.21	489.027
1414.16	488.627
1415.12	487.642
1416.07	485.827
1417.03	484.008
1417.98	482.235
1418.93	480.591
1419.89	479.283
1420.84	478.359
1421.79	477.944
1422.74	477.588
1423.7	477.613
1424.65	477.904
1425.6	478.44
1426.55	479.479
1427.5	481.03
1428.45	483.687
1429.4	486.761
1430.35	490.001
1431.3	493.256
1432.25	495.855
1433.2	497.549
1434.15	498.797
1435.1	499.563
1436.05	499.933
1437	500.02
1437.95	499.79
1438.89	499.25
1439.84	498.373
1440.79	497.179
1441.74	495.494
1442.68	493.634
1443.63	491.593
1444.58	489.43
1445.52	487.289
1446.47	485.431
1447.41	483.764
1448.36	482.298
1449.3	480.997
1450.25	479.724
1451.19	478.226
1452.14	476.372
1453.08	473.802
1454.03	470.733
1454.97	467.221
1455.91	463.429
1456.85	459.532
1457.8	455.744
1458.74	452.097
1459.68	448.777
1460.62	445.826
1461.57	443.303
1462.51	441.271
1463.45	439.714
1464.39	438.667
1465.33	438.27
1466.27	438.465
1467.21	439.13
1468.15	440.16
1469.09	441.415
1470.03	442.687
1470.97	443.625
1471.9	444.196
1472.84	444.321
1473.78	444.025
1474.72	443.529
1475.66	443.119
1476.59	442.816
1477.53	442.708
1478.47	442.759
1479.4	442.937
1480.34	443.26
1481.28	443.735
1482.21	444.383
1483.15	445.164
1484.08	445.982
1485.02	446.688
1485.95	447.121
1486.89	446.933
1487.82	446.371
1488.76	445.357
1489.69	444.003
1490.62	442.483
1491.56	440.963
1492.49	439.058
1493.42	436.828
1494.35	434.457
1495.29	431.916
1496.22	429.394
1497.15	427.053
1498.08	424.677
1499.01	422.579
1499.94	420.683
1500.87	418.95
1501.8	417.42
1502.73	416.387
1503.66	416.376
1504.59	418.255
1505.52	421.474
1506.45	425.481
1507.38	435.51
1508.31	441.991
1509.23	448.826
1510.16	456.157
1511.09	464.094
1512.02	472.28
1512.94	481.235
1513.87	490.811
1514.8	501.248
1515.72	513.489
1516.65	526.763
1517.58	540.395
1518.5	554.188
1519.43	567.056
1520.35	579.118
1521.28	590.126
1522.2	599.857
1523.12	607.691
1524.05	613.315
1524.97	616.709
1525.9	617.596
1526.82	615.704
1527.74	611.055
1528.66	603.372
1529.59	592.442
1530.51	581.895
1531.43	570.281
1532.35	558.443
1533.27	546.69
1534.19	535.345
1535.11	524.441
1536.04	513.912
1536.96	504.035
1537.88	494.091
1538.8	484.692
1539.71	476.248
1540.63	468.97
1541.55	462.908
1542.47	458.175
1543.39	454.461
1544.31	451.762
1545.23	449.859
1546.14	448.558
1547.06	448.235
1547.98	448.292
1548.89	448.488
1549.81	448.5
1550.73	448.022
1551.64	446.455
1552.56	443.901
1553.47	440.576
1554.39	436.487
1555.31	431.747
1556.22	426.195
1557.13	420.261
1558.05	413.761
1558.96	407.329
1559.88	401.258
1560.79	395.905
1561.7	391.615
1562.62	387.951
1563.53	385.046
1564.44	383.255
1565.35	381.759
1566.27	380.525
1567.18	379.268
1568.09	378.12
1569	377.074
1569.91	376.103
1570.82	375.069
1571.73	373.864
1572.64	372.5
1573.55	371.208
1574.46	369.978
1575.37	368.813
1576.28	367.719
1577.19	366.756
1578.1	366.456
1579	366.585
1579.91	367.17
1580.82	367.963
1581.73	368.884
1582.63	369.966
1583.54	370.924
1584.45	371.628
1585.35	372.115
1586.26	372.685
1587.17	373.464
1588.07	374.502
1588.98	375.217
1589.88	375.635
1590.79	376.052
1591.69	375.273
1592.6	374.811
1593.5	374.593
1594.4	374.888
1595.31	375.881
1596.21	377.69
1597.11	380.29
1598.02	383.258
1598.92	386.082
1599.82	388.851
1600.72	391.203
1601.63	393.183
1602.53	394.499
1603.43	395.708
1604.33	397.216
1605.23	398.33
1606.13	399.383
1607.03	400.466
1607.93	400.879
1608.83	400.685
1609.73	399.494
1610.63	397.887
1611.53	396.23
1612.43	394.889
1613.32	393.777
1614.22	392.541
1615.12	391.132
1616.02	389.845
1616.92	388.224
1617.81	386.865
1618.71	386.055
1619.61	385.199
1620.5	384.317
1621.4	382.997
1622.29	381.518
1623.19	380.722
1624.08	380.94
1624.98	381.57
1625.87	381.806
1626.77	382.318
1627.66	383.621
1628.56	384.804
1629.45	385.806
1630.34	387.281
1631.24	389.081
1632.13	391.03
1632.84	391.584
1633.77	391.897
1634.7	391.508
1635.63	390.317
1636.56	390.023
1637.49	388.326
1638.42	386.018
1639.34	383.749
1640.27	380.643
1641.2	378.388
1642.13	376.097
1643.05	373.48
1643.98	371.961
1644.91	370.902
1645.83	371.074
1646.76	370.791
1647.68	371.282
1648.61	373.918
1649.54	375.81
1650.46	377.982
1651.39	379.639
1652.31	381.797
1653.23	384.301
1654.16	386.753
1655.08	389.069
1656.01	390.741
1656.93	391.16
1657.85	390.85
1658.78	390.048
1659.7	389.178
1660.62	387.37
1661.54	384.752
1662.47	380.35
1663.39	377.836
1664.31	376.006
1665.23	373.868
1666.15	372.637
1667.07	371.064
1667.99	369.315
1668.92	368.82
1669.84	368.833
1670.76	369.189
1671.68	369.589
1672.6	370.407
1673.52	371.624
1674.43	372.191
1675.35	372.085
1676.27	373.196
1677.19	374.413
1678.11	373.945
1679.03	371.983
1679.95	368.843
1680.86	365.613
1681.78	362.815
1682.7	360.429
1683.61	358.659
1684.53	356.732
1685.45	356.102
1686.36	354.866
1687.28	353.852
1688.2	352.68
1689.11	351.417
1690.03	350.772
1690.94	350.296
1691.86	350.609
1692.77	350.498
1693.69	351.066
1694.6	351.104
1695.52	350.192
1696.43	349.258
1697.34	347.888
1698.26	345.211
1699.17	344.143
1700.08	343.848
1700.99	343.345
1701.91	342.723
1702.82	342.194
1703.73	341.557
1704.64	340.452
1705.55	338.493
1706.47	335.772
1707.38	333.498
1708.29	332.184
1709.2	330.487
1710.11	329.448
1711.02	329.643
1711.93	330.285
1712.84	330.081
1713.75	330.439
1714.66	330.508
1715.57	330.385
1716.48	330.583
1717.39	330.979
1718.29	330.672
1719.2	329.951
1720.11	329.593
1721.02	329.36
1721.93	328.736
1722.83	327.372
1723.74	325.279
1724.65	324.024
1725.55	323.015
1726.46	322.698
1727.37	322.346
1728.27	322.508
1729.18	322.551
1730.08	321.928
1730.99	321.232
1731.89	320.902
1732.8	320.58
1733.7	320.656
1734.61	321.039
1735.51	321.373
1736.42	321.174
1737.32	321.03
1738.22	320.707
1739.13	320.552
1740.03	320.437
1740.93	320.028
1741.83	320.184
1742.74	321.193
1743.64	321.142
1744.54	320.626
1745.44	320.655
1746.34	320.642
1747.24	320.529
1748.15	320.527
1749.05	319.821
1749.95	318.906
1750.85	317.482
1751.75	316.065
1752.65	314.654
1753.55	313.872
1754.45	313.57
1755.35	313.615
1756.25	313.262
1757.14	312.643
1758.04	311.517
1758.94	310.466
1759.84	309.165
1760.74	309.211
1761.63	308.814
1762.53	308.004
1763.43	307.352
1764.33	306.582
1765.22	305.154
1766.12	303.799
1767.02	302.447
1767.91	300.421
1768.81	298.558
1769.7	297.436
1770.6	296.328
1771.49	295.683
1772.39	294.989
1773.28	294.725
1774.18	295.086
1775.07	295.07
1775.97	295.625
1776.86	296.761
1777.75	298.255
1778.65	299.204
1779.54	299.311
1780.43	299.305
1781.33	298.857
1782.22	298.321
1783.11	297.547
1784	297.04
1784.89	296.088
1785.79	294.653
1786.68	293.424
1787.57	292.609
1788.46	291.583
1789.35	289.622
1790.24	287.525
1791.13	285.941
1792.02	286.059
1792.91	285.269
1793.8	285.929
1794.69	289.503
1795.58	290.483
1796.47	290.989
1797.36	291.512
1798.25	291.267
1799.13	291.347
