Acq. time (s)=	15
Accumulations=	2
Range (cm-¹)=	600...1800
Windows=	2
Autofocus=	Off
AutoExposure=	On
Spike filter=	Multiple accum.
Delay time (s)=	1
Binning=	1
Readout mode=	Signal
DeNoise=	Standard
ICS correction=	Off
Dark correction=	Off
Inst. Process=	Off
Instrument=	XploRA
Detector=	Syncerity
Objective=	x20LWD
Grating=	1200 gr/mm
Filter=	25%
Laser (nm)=	785 
Slit (µm)=	100 
Hole (µm)=	300 
Laser pol=	None
Raman pol=	None
Output=	Camera
StageXY=	Marzhauser
StageZ=	
X (µm)=	-3168.5
Y (µm)=	-8831.7
Project=	
Sample=	
Site=	
Title=	To4-T
Remark=	
Date=	14.10.2022 20:33
Acquired=	14.10.2022 20:33:37
600.787	283.619
601.956	285.684
603.126	290.579
604.294	291.06
605.463	293.551
606.631	293.361
607.8	294.338
608.967	294.144
610.135	294.032
611.302	293.915
612.468	293.17
613.635	293.253
614.802	293.268
615.968	294.629
617.133	296.417
618.299	299.145
619.464	302.069
620.629	305.009
621.793	307.984
622.958	311.086
624.121	314.03
625.285	316.426
626.448	317.593
627.612	317.321
628.774	317.502
629.937	314.229
631.099	314.305
632.261	314.536
633.423	314.64
634.584	314.661
635.745	314.576
636.906	314.646
638.066	315.031
639.227	315.279
640.386	315.867
641.546	316.909
642.705	317.632
643.864	318.161
645.023	318.399
646.181	318.409
647.339	318.227
648.497	317.811
649.655	317.108
650.812	315.962
651.969	315.735
653.125	316.107
654.282	319.368
655.438	323.002
656.593	327.043
657.75	330.938
658.905	333.165
660.059	333.924
661.214	330.899
662.368	330.267
663.522	330.608
664.676	330.513
665.83	330.28
666.983	329.769
668.136	328.988
669.288	327.972
670.441	326.623
671.592	325.156
672.744	323.937
673.895	323.088
675.046	322.482
676.197	322.554
677.348	323.184
678.498	324.231
679.648	325.313
680.798	326.117
681.947	326.625
683.096	326.868
684.245	327.494
685.394	328.852
686.542	330.194
687.69	331.271
688.837	332.517
689.984	333.592
691.132	334.297
692.278	334.491
693.425	334.308
694.571	333.806
695.717	333.011
696.863	332.056
698.008	330.852
699.152	329.293
700.298	327.408
701.442	326.537
702.586	325.93
703.73	325.31
704.873	324.841
706.017	324.754
707.16	324.839
708.302	324.851
709.445	324.163
710.586	323.511
711.729	323.043
712.87	322.957
714.012	323.027
715.152	323.139
716.293	323.159
717.433	322.472
718.573	322.4
719.713	322.956
720.853	322.742
721.991	321.708
723.131	321.132
724.269	320.613
725.408	319.915
726.545	318.915
727.683	318.544
728.821	318.066
729.958	317.012
731.095	316.941
732.231	317.587
733.368	319.05
734.503	321.196
735.639	324.211
736.775	326.89
737.91	329.177
739.045	331.228
740.179	332.796
741.313	333.716
742.447	333.948
743.581	333.313
744.714	331.999
745.847	330.139
746.98	327.829
748.113	325.798
749.245	324.046
750.377	322.753
751.509	321.475
752.64	319.194
753.771	316.913
754.902	314.943
756.033	312.975
757.163	311.113
758.293	309.388
759.423	307.837
760.551	306.547
761.681	305.549
762.81	305.283
763.938	304.985
765.066	304.629
766.194	304.268
767.321	303.811
768.449	303.255
769.576	302.753
770.703	302.396
771.83	302.424
772.955	301.364
774.081	299.577
775.207	297.552
776.332	295.942
777.457	294.07
778.582	292.237
779.707	290.488
780.831	289.057
781.954	287.432
783.078	285.976
784.201	284.552
785.324	283.352
786.447	282.585
787.569	282.128
788.691	282.039
789.813	282.364
790.935	283.138
792.056	284.206
793.177	285.38
794.297	285.228
795.418	284.996
796.539	284.699
797.658	284.693
798.777	284.159
799.897	282.652
801.016	280.832
802.134	278.876
803.253	277.097
804.371	274.888
805.489	273.382
806.606	272.103
807.723	271.345
808.84	271.27
809.957	271.429
811.073	271.772
812.19	272.199
813.305	272.648
814.421	273.099
815.536	273.533
816.651	274.017
817.766	274.436
818.88	275.092
819.994	275.788
821.108	276.397
822.221	276.785
823.335	277.037
824.448	277.185
825.56	277.254
826.673	277.164
827.784	276.884
828.897	273.877
830.008	273.516
831.119	272.968
832.23	272.471
833.341	272.261
834.451	272.249
835.561	271.504
836.671	270.792
837.78	270.294
838.89	270.072
839.998	270.13
841.108	270.952
842.216	271.375
843.324	271.531
844.431	271.355
845.539	270.882
846.646	270.102
847.753	269.077
848.859	267.587
849.966	265.822
851.071	264.061
852.178	263.164
853.283	261.616
854.388	260.334
855.494	256.487
856.598	252.932
857.703	251.674
858.806	250.961
859.91	251.562
861.014	252.898
862.116	253.935
863.22	254.605
864.322	255.036
865.425	255.394
866.527	254.328
867.628	254.578
868.73	254.83
869.831	254.635
870.932	253.273
872.032	252.382
873.133	251.956
874.233	251.764
875.333	251.677
876.432	251.151
877.532	250.508
878.631	249.809
879.729	249.086
880.828	248.303
881.926	247.488
883.023	246.611
884.121	245.695
885.218	244.771
886.315	243.822
887.412	244.047
888.508	243.819
889.604	243.636
890.699	243.424
891.795	243.121
892.89	242.691
893.985	241.745
895.08	241.468
896.174	241.502
897.268	241.822
898.362	242.678
899.456	243.453
900.549	243.756
901.642	243.801
902.734	243.602
903.827	243.187
904.919	242.306
906.011	241.208
907.102	240.341
908.193	239.504
909.284	239.01
910.375	238.534
911.465	238.604
912.555	239.51
913.645	240.663
914.734	241.129
915.824	241.581
916.913	242.486
918.001	243.172
919.09	243.346
920.177	243.134
921.266	242.154
922.353	240.578
923.44	238.458
924.527	236.299
925.614	234.14
926.7	232.192
927.786	229.892
928.873	228.552
929.958	227.346
931.043	226.566
932.128	225.781
933.213	225.834
934.297	226.154
935.381	226.266
936.465	225.247
937.549	225.612
938.632	226.419
939.715	227.281
940.798	228.109
941.881	229.035
942.962	227.669
944.044	225.916
945.125	224.018
946.207	222.001
947.288	220.052
948.368	218.162
949.449	216.532
950.529	215.29
951.61	214.066
952.689	212.975
953.769	212.026
954.847	211.047
955.926	209.016
957.004	208.891
958.082	208.653
959.16	209.025
960.238	209.768
961.316	211.441
962.392	212.404
963.469	213.798
964.546	213.755
965.622	215.319
966.698	219.539
967.774	210.757
968.849	208.167
969.924	210.164
970.998	212.123
972.073	211.752
973.148	213.305
974.221	211.726
975.295	210.439
976.369	208.835
977.441	207.696
978.514	207.907
979.587	208.958
980.659	211.033
981.731	212.693
982.802	217.082
983.874	223.094
984.945	225.072
986.016	226.133
987.087	225.443
988.157	225.449
989.227	225.296
990.296	224.301
991.366	219.294
992.435	217.037
993.504	215.794
994.573	212.603
995.641	211.069
996.709	210.711
997.777	211.54
998.844	212.195
999.911	212.744
1000.98	214.05
1002.05	214.356
1003.11	214.268
1004.18	213.806
1005.24	208.321
1006.31	206.162
1007.37	204.745
1008.44	203.394
1009.5	202.133
1010.57	200.894
1011.63	199.797
1012.7	198.761
1013.76	197.715
1014.82	198.295
1015.89	198.728
1016.95	198.299
1018.01	197.576
1019.07	196.647
1020.13	195.477
1021.2	194.103
1022.26	192.553
1023.32	190.873
1024.38	189.276
1025.44	188.158
1026.5	187.812
1027.56	187.767
1028.62	187.928
1029.68	188.184
1030.74	188.586
1031.8	189.077
1032.85	189.179
1033.91	188.912
1034.97	187.801
1036.03	186.853
1037.09	186.646
1038.14	186.52
1039.2	186.381
1040.26	186.147
1041.31	185.71
1042.37	185.311
1043.42	184.734
1044.48	184.132
1045.53	183.595
1046.59	183.292
1047.64	183.145
1048.7	183.261
1049.75	183.666
1050.81	184.195
1051.86	185.181
1052.91	184.794
1053.97	183.916
1055.02	183.143
1056.07	182.554
1057.12	182.487
1058.17	182.496
1059.23	182.426
1060.28	182.01
1061.33	181.007
1062.38	180.105
1063.43	179.709
1064.48	179.484
1065.53	179.552
1066.58	179.988
1067.63	181.088
1068.68	181.573
1069.72	182.865
1070.77	184.67
1071.82	184.6
1072.87	184.663
1073.92	184.153
1074.96	183.485
1076.01	182.288
1077.06	181.206
1078.1	179.933
1079.15	178.67
1080.2	177.347
1081.24	176.071
1082.29	174.901
1083.33	173.766
1084.38	172.826
1085.42	171.929
1086.47	171.198
1087.51	170.719
1088.55	170.372
1089.6	170.147
1090.64	170.135
1091.68	170.15
1092.73	169.999
1093.77	170.037
1094.81	170.018
1095.85	169.764
1096.89	169.317
1097.93	168.589
1098.98	167.921
1100.02	167.302
1101.06	166.887
1102.1	166.766
1103.14	166.957
1104.18	166.673
1105.21	166.682
1106.25	166.903
1107.29	167.224
1108.33	167.407
1109.37	167.737
1110.41	168.077
1111.44	168.939
1112.48	168.249
1113.52	167.518
1114.56	166.851
1115.59	166.273
1116.63	165.691
1117.66	165.312
1118.7	165.051
1119.73	164.962
1120.77	165.075
1121.8	165.239
1122.84	165.583
1123.87	165.994
1124.91	166.47
1125.94	167.051
1126.97	167.659
1128.01	168.319
1129.04	168.791
1130.07	168.827
1131.11	168.859
1132.14	169.424
1133.17	170.087
1134.2	170.851
1135.23	171.689
1136.26	172.441
1137.29	173.16
1138.32	173.924
1139.35	174.62
1140.38	175.179
1141.41	175.602
1142.44	175.434
1143.47	175.306
1144.5	175.94
1145.53	176.772
1146.56	178.339
1147.58	179.34
1148.61	180.316
1149.64	181.302
1150.67	182.422
1151.69	183.832
1152.72	185.433
1153.75	186.904
1154.77	187.741
1155.8	188.182
1156.82	188.016
1157.85	187.325
1158.87	185.809
1159.9	183.156
1160.92	179.049
1161.95	175.207
1162.97	171.736
1163.99	168.663
1165.02	165.749
1166.04	163.23
1167.06	161.086
1168.08	159.389
1169.11	158.202
1170.13	157.704
1171.15	157.917
1172.17	158.533
1173.19	159.266
1174.21	160.073
1175.23	161.048
1176.25	162.256
1177.27	163.428
1178.29	164.571
1179.31	165.566
1180.33	166.358
1181.35	166.871
1182.37	167.396
1183.39	167.71
1184.4	167.681
1185.42	167.402
1186.44	166.732
1187.46	165.879
1188.47	165.157
1189.49	163.606
1190.51	161.976
1191.52	160.301
1192.54	158.568
1193.55	156.573
1194.57	155.37
1195.58	154.351
1196.6	153.416
1197.61	152.603
1198.63	151.849
1199.64	151.192
1200.65	150.592
1201.67	150.067
1202.68	149.596
1203.69	149.195
1204.7	148.836
1205.72	148.502
1206.73	148.23
1207.74	147.86
1208.75	147.588
1209.76	147.379
1210.77	147.221
1211.78	147.097
1212.79	147
1213.8	146.977
1214.81	147.018
1215.82	147.032
1216.83	147.16
1217.84	147.478
1218.85	147.839
1219.86	148.171
1220.87	148.517
1221.87	148.835
1222.88	149.13
1223.89	149.401
1224.9	149.621
1225.9	149.79
1226.91	149.66
1227.92	149.458
1228.92	149.082
1229.93	147.859
1230.93	146.084
1231.94	144.753
1232.94	144.151
1233.95	143.411
1234.95	143.067
1235.95	142.868
1236.96	142.351
1237.96	141
1238.96	139.544
1239.97	137.912
1240.97	136.168
1241.97	134.274
1242.97	132.33
1243.98	130.311
1244.98	128.758
1245.98	127.401
1246.98	126.074
1247.98	125.294
1248.98	125.427
1249.98	126.57
1250.98	127.101
1251.98	127.155
1252.98	128.059
1253.98	127.395
1254.98	127.647
1255.98	127.66
1256.97	126.794
1257.97	128.212
1258.97	130.081
1259.97	131.826
1260.97	133.828
1261.96	135.337
1262.96	135.45
1263.95	135.026
1264.95	134.04
1265.95	132.051
1266.94	129.485
1267.94	127.285
1268.93	125.299
1269.93	123.647
1270.92	122.162
1271.92	121.009
1272.91	120.106
1273.9	123.72
1274.9	124.274
1275.89	125.014
1276.88	125.777
1277.87	126.843
1278.87	128.059
1279.86	129.361
1280.85	130.665
1281.84	131.98
1282.83	133.062
1283.82	134.255
1284.81	135.285
1285.81	136.121
1286.8	135.61
1287.79	135.091
1288.77	134.533
1289.76	133.452
1290.75	132.445
1291.74	131.114
1292.73	129.519
1293.72	128.131
1294.71	126.83
1295.69	125.688
1296.68	124.768
1297.67	124.003
1298.65	123.487
1299.64	123.126
1300.63	122.851
1301.61	123.034
1302.6	123.429
1303.58	123.933
1304.57	124.463
1305.55	124.874
1306.54	125.02
1307.52	124.946
1308.51	124.768
1309.49	124.37
1310.48	123.772
1311.46	123.004
1312.44	121.986
1313.42	120.757
1314.41	119.613
1315.39	118.947
1316.37	118.758
1317.35	119.079
1318.33	119.852
1319.32	121.276
1320.3	122.997
1321.28	124.938
1322.26	126.805
1323.24	128.665
1324.22	130.785
1325.2	132.902
1326.18	134.868
1327.15	135.966
1328.13	136.418
1329.11	135.856
1330.09	134.553
1331.07	132.539
1332.05	130.039
1333.02	127.325
1334	124.317
1334.98	121.208
1335.95	118.461
1336.93	116.962
1337.91	115.807
1338.88	114.778
1339.86	114.086
1340.83	113.824
1341.81	113.838
1342.78	114.136
1343.76	114.927
1344.73	115.848
1345.7	116.826
1346.68	117.18
1347.65	117.715
1348.62	118.014
1349.6	118.259
1350.57	117.716
1351.54	116.767
1352.51	115.771
1353.49	114.744
1354.46	113.731
1355.43	112.943
1356.4	112.167
1357.37	111.414
1358.34	110.7
1359.31	110.042
1360.28	109.419
1361.25	108.874
1362.22	108.359
1363.19	107.906
1364.16	107.554
1365.12	107.222
1366.09	107.008
1367.06	106.878
1368.03	106.829
1369	106.792
1369.96	106.891
1370.93	107.002
1371.9	107.191
1372.86	107.403
1373.83	107.648
1374.79	107.916
1375.76	108.162
1376.73	108.388
1377.69	108.363
1378.66	108.092
1379.62	107.593
1380.58	106.921
1381.55	106.223
1382.51	105.559
1383.48	105.129
1384.44	104.802
1385.4	104.608
1386.36	104.331
1387.33	104.056
1388.29	103.752
1389.25	103.554
1390.21	103.614
1391.17	103.812
1392.13	103.979
1393.09	104.139
1394.06	104.031
1395.01	103.697
1395.97	103.156
1396.93	102.581
1397.89	102.013
1398.85	101.596
1399.81	101.262
1400.77	101.093
1401.73	101.143
1402.69	101.148
1403.64	101.206
1404.6	101.074
1405.56	101.074
1406.52	101.093
1407.47	100.931
1408.43	101.382
1409.39	101.328
1410.34	101.59
1411.3	101.03
1412.25	100.622
1413.21	100.035
1414.16	99.3957
1415.12	98.751
1416.07	98.1795
1417.03	97.808
1417.98	97.5317
1418.93	97.2765
1419.89	97.1354
1420.84	97.0443
1421.79	97.0333
1422.74	97.0953
1423.7	97.199
1424.65	97.3321
1425.6	97.5612
1426.55	97.8625
1427.5	98.0353
1428.45	98.7462
1429.4	99.5111
1430.35	100.005
1431.3	100.199
1432.25	100.575
1433.2	100.951
1434.15	101.574
1435.1	101.718
1436.05	101.937
1437	101.903
1437.95	101.578
1438.89	101.263
1439.84	101.012
1440.79	100.535
1441.74	100.117
1442.68	99.6081
1443.63	99.3925
1444.58	98.6831
1445.52	98.0956
1446.47	98.1968
1447.41	97.491
1448.36	96.4815
1449.3	95.517
1450.25	94.6035
1451.19	93.972
1452.14	93.2846
1453.08	92.6935
1454.03	92.1573
1454.97	91.7409
1455.91	91.4352
1456.85	91.3044
1457.8	91.3522
1458.74	91.6557
1459.68	91.9784
1460.62	92.5585
1461.57	92.0123
1462.51	91.3301
1463.45	90.647
1464.39	89.9914
1465.33	89.3974
1466.27	88.846
1467.21	88.3891
1468.15	87.9653
1469.09	87.6524
1470.03	87.3707
1470.97	87.1895
1471.9	87.0532
1472.84	86.961
1473.78	86.9306
1474.72	86.9134
1475.66	86.9637
1476.59	87.042
1477.53	87.2007
1478.47	87.3773
1479.4	87.6297
1480.34	87.892
1481.28	88.2282
1482.21	88.6203
1483.15	89.0858
1484.08	89.6595
1485.02	90.3156
1485.95	92.7033
1486.89	93.4488
1487.82	93.9183
1488.76	94.0037
1489.69	93.8417
1490.62	93.3543
1491.56	92.6265
1492.49	91.7611
1493.42	90.6207
1494.35	89.3083
1495.29	88.0632
1496.22	87.2802
1497.15	86.5966
1498.08	86.0857
1499.01	85.8452
1499.94	86.5088
1500.87	86.4991
1501.8	85.3983
1502.73	85.5295
1503.66	86.188
1504.59	87.0145
1505.52	88.7043
1506.45	89.9813
1507.38	91.0408
1508.31	91.8903
1509.23	92.5488
1510.16	92.9706
1511.09	93.0341
1512.02	92.985
1512.94	93.5381
1513.87	94.1673
1514.8	95.0827
1515.72	96.1181
1516.65	97.5107
1517.58	99.3478
1518.5	101.436
1519.43	104.706
1520.35	106.775
1521.28	110.274
1522.2	113.265
1523.12	115.608
1524.05	117.193
1524.97	118.03
1525.9	117.872
1526.82	117.629
1527.74	116.115
1528.66	115.273
1529.59	113.99
1530.51	112.455
1531.43	111.081
1532.35	109.213
1533.27	107.495
1534.19	106.108
1535.11	104.182
1536.04	101.914
1536.96	99.6029
1537.88	97.2014
1538.8	94.7829
1539.71	92.5366
1540.63	90.4519
1541.55	88.6241
1542.47	86.994
1543.39	85.5742
1544.31	84.3236
1545.23	83.3773
1546.14	82.6901
1547.06	82.2988
1547.98	82.3709
1548.89	83.0938
1549.81	83.8648
1550.73	84.6058
1551.64	85.2675
1552.56	85.5167
1553.47	85.6835
1554.39	85.6165
1555.31	85.3693
1556.22	84.8728
1557.13	84.1784
1558.05	83.3626
1558.96	82.5111
1559.88	81.4419
1560.79	80.3895
1561.7	79.3
1562.62	78.2812
1563.53	77.4154
1564.44	76.642
1565.35	76.1097
1566.27	75.5136
1567.18	74.9426
1568.09	74.4167
1569	73.987
1569.91	73.6521
1570.82	73.3428
1571.73	73.1231
1572.64	72.9486
1573.55	72.8381
1574.46	72.6382
1575.37	72.5544
1576.28	72.4179
1577.19	72.2372
1578.1	72.0967
1579	72.0051
1579.91	71.9722
1580.82	71.9984
1581.73	72.0507
1582.63	72.0987
1583.54	72.0979
1584.45	71.9866
1585.35	71.8604
1586.26	71.7157
1587.17	71.8752
1588.07	72.2345
1588.98	72.5545
1589.88	72.8576
1590.79	73.0518
1591.69	72.7935
1592.6	72.4351
1593.5	72.1219
1594.4	71.8261
1595.31	71.7262
1596.21	71.7106
1597.11	71.7752
1598.02	71.8903
1598.92	72.0106
1599.82	72.0552
1600.72	72.1369
1601.63	72.2933
1602.53	72.5153
1603.43	72.7845
1604.33	73.078
1605.23	73.445
1606.13	73.6857
1607.03	73.9496
1607.93	74.1319
1608.83	74.2168
1609.73	74.1508
1610.63	73.9931
1611.53	73.8035
1612.43	73.4207
1613.32	72.8169
1614.22	72.2642
1615.12	71.9318
1616.02	71.2235
1616.92	70.2747
1617.81	69.3574
1618.71	68.5248
1619.61	67.9362
1620.5	67.428
1621.4	67.1918
1622.29	67.3678
1623.19	67.6198
1624.08	67.9134
1624.98	68.1739
1625.87	68.3265
1626.77	68.3988
1627.66	68.5531
1628.56	68.6179
1629.45	68.6491
1630.34	68.9524
1631.24	69.023
1632.13	68.926
1632.84	69.0022
1633.77	68.9673
1634.7	68.3532
1635.63	67.7041
1636.56	67.0989
1637.49	66.7973
1638.42	66.6296
1639.34	66.4864
1640.27	66.4179
1641.2	66.5218
1642.13	67.2514
1643.05	68.0636
1643.98	68.7267
1644.91	69.3546
1645.83	69.2556
1646.76	68.7655
1647.68	68.4972
1648.61	68.1004
1649.54	67.2786
1650.46	66.7616
1651.39	66.7031
1652.31	66.5944
1653.23	66.6636
1654.16	67.0952
1655.08	67.5302
1656.01	67.7196
1656.93	68.2466
1657.85	68.8697
1658.78	69.1785
1659.7	69.5908
1660.62	69.9397
1661.54	69.8838
1662.47	69.8756
1663.39	69.4638
1664.31	69.1082
1665.23	68.5842
1666.15	68.0633
1667.07	67.6612
1667.99	67.5025
1668.92	67.6296
1669.84	66.2719
1670.76	64.775
1671.68	63.5215
1672.6	62.7538
1673.52	62.5129
1674.43	62.5125
1675.35	62.8059
1676.27	63.3153
1677.19	64.2689
1678.11	65.3742
1679.03	66.4493
1679.95	67.0027
1680.86	67.2619
1681.78	67.2084
1682.7	66.7471
1683.61	66.0325
1684.53	65.5139
1685.45	64.8798
1686.36	64.1765
1687.28	63.5529
1688.2	62.9495
1689.11	62.3519
1690.03	61.6943
1690.94	60.9817
1691.86	60.3447
1692.77	59.8696
1693.69	59.7029
1694.6	60.0355
1695.52	60.5012
1696.43	60.8021
1697.34	60.8822
1698.26	60.7497
1699.17	60.5985
1700.08	60.4376
1700.99	60.2801
1701.91	60.3259
1702.82	60.4255
1703.73	60.5438
1704.64	60.7387
1705.55	61.0361
1706.47	61.3014
1707.38	61.1411
1708.29	60.6591
1709.2	60.4071
1710.11	59.9048
1711.02	59.5694
1711.93	59.049
1712.84	58.8203
1713.75	58.922
1714.66	59.0395
1715.57	59.4328
1716.48	58.9162
1717.39	58.3092
1718.29	57.1181
1719.2	56.2793
1720.11	55.5738
1721.02	55.1105
1721.93	54.9856
1722.83	55.1292
1723.74	55.8814
1724.65	56.3531
1725.55	58.4043
1726.46	58.0475
1727.37	57.305
1728.27	56.9475
1729.18	57.173
1730.08	57.1604
1730.99	57.2679
1731.89	57.2277
1732.8	57.1897
1733.7	57.6091
1734.61	57.6377
1735.51	57.4524
1736.42	57.2011
1737.32	56.7074
1738.22	56.1761
1739.13	55.5979
1740.03	55.0568
1740.93	54.4553
1741.83	53.958
1742.74	53.5515
1743.64	53.709
1744.54	54.1698
1745.44	54.9062
1746.34	55.5734
1747.24	56.0729
1748.15	56.4192
1749.05	56.8444
1749.95	57.1608
1750.85	57.3934
1751.75	57.6514
1752.65	57.1953
1753.55	56.5577
1754.45	55.8875
1755.35	55.1396
1756.25	54.501
1757.14	53.9198
1758.04	53.7641
1758.94	53.09
1759.84	52.7611
1760.74	52.6752
1761.63	53.0058
1762.53	53.5527
1763.43	54.0988
1764.33	54.5463
1765.22	55.127
1766.12	55.5577
1767.02	55.7338
1767.91	55.8977
1768.81	55.9828
1769.7	56.0513
1770.6	56.0853
1771.49	56.1125
1772.39	56.089
1773.28	56.0533
1774.18	55.9661
1775.07	55.8652
1775.97	55.7164
1776.86	55.5345
1777.75	55.3301
1778.65	55.1316
1779.54	54.931
1780.43	54.6996
1781.33	54.216
1782.22	53.7274
1783.11	53.2076
1784	52.6548
1784.89	52.1271
1785.79	51.5279
1786.68	51.0451
1787.57	50.5674
1788.46	50.1439
1789.35	50.3554
1790.24	50.4456
1791.13	50.631
1792.02	50.8544
1792.91	51.0626
1793.8	50.8016
1794.69	50.6975
1795.58	50.4025
1796.47	50.8078
1797.36	50.9187
1798.25	51.8449
1799.13	52.5384
