Acq. time (s)=	15
Accumulations=	2
Range (cm-¹)=	600...1800
Windows=	2
Autofocus=	Off
AutoExposure=	On
Spike filter=	Multiple accum.
Delay time (s)=	1
Binning=	1
Readout mode=	Signal
DeNoise=	Standard
ICS correction=	Off
Dark correction=	Off
Inst. Process=	Off
Instrument=	XploRA
Detector=	Syncerity
Objective=	x20LWD
Grating=	1200 gr/mm
Filter=	25%
Laser (nm)=	785 
Slit (µm)=	100 
Hole (µm)=	300 
Laser pol=	None
Raman pol=	None
Output=	Camera
StageXY=	Marzhauser
StageZ=	
X (µm)=	-2173.1
Y (µm)=	481.2
Project=	
Sample=	
Site=	
Title=	To9-T
Remark=	
Date=	14.10.2022 23:44
Acquired=	14.10.2022 23:44:02
600.787	396.417
601.956	399.74
603.126	401.446
604.294	403.28
605.463	405.251
606.631	407.408
607.8	410.238
608.967	413.138
610.135	415.308
611.302	417.134
612.468	418.849
613.635	420.302
614.802	421.383
615.968	421.952
617.133	422.265
618.299	422.31
619.464	422.328
620.629	421.775
621.793	421.206
622.958	421.171
624.121	421.329
625.285	421.705
626.448	422.497
627.612	423.571
628.774	424.956
629.937	426.309
631.099	428.912
632.261	431.192
633.423	432.121
634.584	432.59
635.745	433.354
636.906	433.646
638.066	432.993
639.227	432.658
640.386	432.289
641.546	431.903
642.705	431.335
643.864	430.547
645.023	429.654
646.181	429.737
647.339	430.057
648.497	430.516
649.655	430.94
650.812	431.423
651.969	431.994
653.125	432.504
654.282	433.092
655.438	433.411
656.593	432.095
657.75	431.071
658.905	430.003
660.059	428.72
661.214	427.625
662.368	428.233
663.522	428.268
664.676	428.255
665.83	428.649
666.983	429.644
668.136	431.37
669.288	433.468
670.441	436.046
671.592	438.882
672.744	441.246
673.895	443.819
675.046	445.42
676.197	446.573
677.348	447.047
678.498	446.896
679.648	445.927
680.798	445.239
681.947	444.43
683.096	443.098
684.245	441.363
685.394	440.324
686.542	439.137
687.69	437.372
688.837	436.725
689.984	436.661
691.132	437.134
692.278	437.8
693.425	438.903
694.571	439.998
695.717	440.475
696.863	440.9
698.008	440.559
699.152	440.862
700.298	440.578
701.442	440.658
702.586	440.703
703.73	440.96
704.873	440.599
706.017	439.419
707.16	438.061
708.302	436.698
709.445	435.42
710.586	434.102
711.729	432.7
712.87	431.259
714.012	429.193
715.152	427.116
716.293	425.288
717.433	424.14
718.573	423.45
719.713	423.173
720.853	423.258
721.991	423.907
723.131	423.795
724.269	424.851
725.408	424.727
726.545	424.828
727.683	424.849
728.821	425.082
729.958	425.634
731.095	426.447
732.231	427.789
733.368	429.428
734.503	430.128
735.639	431.007
736.775	432.141
737.91	433.79
739.045	436.359
740.179	439.152
741.313	441.45
742.447	443.153
743.581	444.074
744.714	444.151
745.847	443.44
746.98	441.944
748.113	439.361
749.245	436.297
750.377	432.897
751.509	429.758
752.64	427.431
753.771	425.273
754.902	423.211
756.033	421.126
757.163	419.152
758.293	417.267
759.423	415.457
760.551	413.737
761.681	414.283
762.81	413.127
763.938	411.311
765.066	408.973
766.194	406.035
767.321	402.755
768.449	399.837
769.576	396.902
770.703	394.841
771.83	393.431
772.955	392.432
774.081	391.697
775.207	391.354
776.332	391.203
777.457	391.343
778.582	391.801
779.707	392.492
780.831	393.177
781.954	393.319
783.078	392.933
784.201	392.87
785.324	392.718
786.447	392.401
787.569	391.664
788.691	390.156
789.813	389.477
790.935	388.615
792.056	387.404
793.177	385.944
794.297	384.186
795.418	382.425
796.539	380.922
797.658	380.547
798.777	379.06
799.897	377.469
801.016	375.736
802.134	373.717
803.253	371.701
804.371	369.934
805.489	368.592
806.606	367.039
807.723	365.168
808.84	364.482
809.957	364.73
811.073	365.587
812.19	366.612
813.305	366.857
814.421	367.232
815.536	368.164
816.651	368.836
817.766	369.123
818.88	368.917
819.994	368.304
821.108	366.887
822.221	364.964
823.335	362.893
824.448	361.246
825.56	359.707
826.673	358.265
827.784	357.109
828.897	356.341
830.008	355.918
831.119	356.163
832.23	356.704
833.341	357.828
834.451	358.975
835.561	359.436
836.671	359.713
837.78	359.864
838.89	359.776
839.998	359.523
841.108	359.223
842.216	359.089
843.324	358.636
844.431	358.389
845.539	359.001
846.646	360.547
847.753	357.425
848.859	353.464
849.966	351.23
851.071	349.006
852.178	346.978
853.283	345.049
854.388	343.067
855.494	341.195
856.598	339.174
857.703	337.451
858.806	337.258
859.91	337.719
861.014	337.77
862.116	337.457
863.22	336.919
864.322	336.097
865.425	335.451
866.527	335.212
867.628	335.225
868.73	335.054
869.831	334.716
870.932	334.321
872.032	333.685
873.133	332.946
874.233	332.115
875.333	331.293
876.432	329.898
877.532	329.2
878.631	328.615
879.729	328.038
880.828	327.411
881.926	326.876
883.023	326.22
884.121	324.854
885.218	323.55
886.315	322.569
887.412	321.966
888.508	322.851
889.604	321.609
890.699	320.537
891.795	319.07
892.89	314.495
893.985	316.118
895.08	316.822
896.174	317.972
897.268	320.901
898.362	316.744
899.456	315.502
900.549	314.524
901.642	313.861
902.734	313.542
903.827	313.61
904.919	314.004
906.011	314.761
907.102	315.811
908.193	317.167
909.284	318.833
910.375	320.779
911.465	323.103
912.555	325.883
913.645	327.248
914.734	326.716
915.824	326.424
916.913	325.648
918.001	324.466
919.09	322.418
920.177	319.766
921.266	316.388
922.353	313.977
923.44	312.033
924.527	310.229
925.614	308.493
926.7	306.782
927.786	305.098
928.873	303.456
929.958	301.852
931.043	300.306
932.128	298.795
933.213	297.307
934.297	295.931
935.381	294.63
936.465	293.455
937.549	292.367
938.632	291.397
939.715	290.626
940.798	290.01
941.881	289.777
942.962	290.206
944.044	290.975
945.125	291.768
946.207	292.026
947.288	291.728
948.368	291.198
949.449	290.486
950.529	289.617
951.61	288.94
952.689	288.242
953.769	287.468
954.847	285.802
955.926	284.595
957.004	283.974
958.082	283.269
959.16	281.857
960.238	280.63
961.316	279.64
962.392	278.683
963.469	278.018
964.546	277.763
965.622	277.686
966.698	277.45
967.774	277.28
968.849	277.309
969.924	277.446
970.998	277.794
972.073	278.608
973.148	279.675
974.221	280.358
975.295	281.074
976.369	281.73
977.441	282.886
978.514	283.778
979.587	284.044
980.659	284.222
981.731	284.401
982.802	284.518
983.874	284.818
984.945	284.991
986.016	284.85
987.087	284.039
988.157	283.175
989.227	282.174
990.296	281.227
991.366	280.142
992.435	279.168
993.504	279.202
994.573	278.929
995.641	278.628
996.709	278.277
997.777	278.205
998.844	278.113
999.911	277.233
1000.98	276.561
1002.05	276.448
1003.11	276.711
1004.18	276.768
1005.24	276.361
1006.31	275.441
1007.37	273.827
1008.44	271.828
1009.5	270.24
1010.57	268.477
1011.63	265.963
1012.7	264.173
1013.76	262.858
1014.82	262.345
1015.89	261.178
1016.95	260.166
1018.01	258.88
1019.07	257.735
1020.13	256.586
1021.2	256.044
1022.26	255.587
1023.32	255.089
1024.38	254.223
1025.44	253.358
1026.5	252.351
1027.56	251.277
1028.62	250.179
1029.68	250.377
1030.74	250.584
1031.8	250.669
1032.85	250.555
1033.91	250.566
1034.97	250.582
1036.03	250.582
1037.09	250.412
1038.14	249.874
1039.2	249.387
1040.26	249.646
1041.31	250.154
1042.37	249.982
1043.42	249.583
1044.48	249.053
1045.53	248.805
1046.59	248.644
1047.64	248.41
1048.7	248.322
1049.75	249.623
1050.81	250.446
1051.86	250.743
1052.91	250.486
1053.97	249.945
1055.02	249.38
1056.07	249.495
1057.12	250.06
1058.17	248.715
1059.23	246.578
1060.28	243.548
1061.33	239.063
1062.38	236.375
1063.43	232.608
1064.48	230.611
1065.53	229.429
1066.58	229.874
1067.63	229.918
1068.68	230.241
1069.72	233.286
1070.77	234.059
1071.82	234.665
1072.87	235.073
1073.92	234.903
1074.96	233.742
1076.01	231.707
1077.06	231.224
1078.1	230.681
1079.15	230.1
1080.2	229.426
1081.24	228.788
1082.29	227.781
1083.33	226.906
1084.38	226.447
1085.42	226.422
1086.47	226.632
1087.51	227.003
1088.55	226.995
1089.6	226.745
1090.64	225.612
1091.68	224.423
1092.73	223.12
1093.77	221.866
1094.81	220.728
1095.85	219.659
1096.89	218.64
1097.93	217.795
1098.98	217.173
1100.02	216.842
1101.06	216.869
1102.1	217.24
1103.14	217.829
1104.18	218.999
1105.21	220.317
1106.25	221.66
1107.29	222.459
1108.33	222.996
1109.37	223.584
1110.41	223.998
1111.44	224.081
1112.48	223.844
1113.52	223.334
1114.56	222.68
1115.59	222
1116.63	221.175
1117.66	219.651
1118.7	218.275
1119.73	217.29
1120.77	216.5
1121.8	215.746
1122.84	215.742
1123.87	215.196
1124.91	214.379
1125.94	213.722
1126.97	213.242
1128.01	212.923
1129.04	213.02
1130.07	213.451
1131.11	214.05
1132.14	214.952
1133.17	216.046
1134.2	217.357
1135.23	218.959
1136.26	220.837
1137.29	222.911
1138.32	225.122
1139.35	227.133
1140.38	229.242
1141.41	231.048
1142.44	232.082
1143.47	232.468
1144.5	232.462
1145.53	231.855
1146.56	231.939
1147.58	229.728
1148.61	229.898
1149.64	230.046
1150.67	230.718
1151.69	231.688
1152.72	232.893
1153.75	234.426
1154.77	236.191
1155.8	238.558
1156.82	239.956
1157.85	241.933
1158.87	242.065
1159.9	244.792
1160.92	241.677
1161.95	236.329
1162.97	231.459
1163.99	225.354
1165.02	218.494
1166.04	214.65
1167.06	211.067
1168.08	208.241
1169.11	206.704
1170.13	205.541
1171.15	208.909
1172.17	209.18
1173.19	209.046
1174.21	209.035
1175.23	208.909
1176.25	208.739
1177.27	208.581
1178.29	208.755
1179.31	209.076
1180.33	209.433
1181.35	210.455
1182.37	211.592
1183.39	212.35
1184.4	212.897
1185.42	213.11
1186.44	213.023
1187.46	212.785
1188.47	212.493
1189.49	212.903
1190.51	212.368
1191.52	210.31
1192.54	208.065
1193.55	205.942
1194.57	203.832
1195.58	201.827
1196.6	199.905
1197.61	198.041
1198.63	196.33
1199.64	194.751
1200.65	193.395
1201.67	192.619
1202.68	192.82
1203.69	193.948
1204.7	194.654
1205.72	195.305
1206.73	195.906
1207.74	196.457
1208.75	196.897
1209.76	197.311
1210.77	197.628
1211.78	197.798
1212.79	197.76
1213.8	197.176
1214.81	196.158
1215.82	195.093
1216.83	194.342
1217.84	193.314
1218.85	192.253
1219.86	191.89
1220.87	192.182
1221.87	192.903
1222.88	193.257
1223.89	193.222
1224.9	193.053
1225.9	193.117
1226.91	193.372
1227.92	193.785
1228.92	194.554
1229.93	194.382
1230.93	193.619
1231.94	192.423
1232.94	190.891
1233.95	189.017
1234.95	187.031
1235.95	184.729
1236.96	182.138
1237.96	179.526
1238.96	177.779
1239.97	176.913
1240.97	176.06
1241.97	175.492
1242.97	175.063
1243.98	174.889
1244.98	175.123
1245.98	175.836
1246.98	176.806
1247.98	177.809
1248.98	178.231
1249.98	178.071
1250.98	176.869
1251.98	175.514
1252.98	174.151
1253.98	173.111
1254.98	172.261
1255.98	171.56
1256.97	171.051
1257.97	170.69
1258.97	170.688
1259.97	170.869
1260.97	171.225
1261.96	171.663
1262.96	172.171
1263.95	172.311
1264.95	172.766
1265.95	173.084
1266.94	173.233
1267.94	172.743
1268.93	171.85
1269.93	170.853
1270.92	169.929
1271.92	169.234
1272.91	169.222
1273.9	169.267
1274.9	169.345
1275.89	169.075
1276.88	168.679
1277.87	167.977
1278.87	167.018
1279.86	165.959
1280.85	165.018
1281.84	164.364
1282.83	163.838
1283.82	163.714
1284.81	164.098
1285.81	164.416
1286.8	164.748
1287.79	164.795
1288.77	164.701
1289.76	164.642
1290.75	164.808
1291.74	165.643
1292.73	164.895
1293.72	163.773
1294.71	162.012
1295.69	159.829
1296.68	158.169
1297.67	155.138
1298.65	153.949
1299.64	153.564
1300.63	154.099
1301.61	155.076
1302.6	156.431
1303.58	158.086
1304.57	159.542
1305.55	161.459
1306.54	162.834
1307.52	163.488
1308.51	163.226
1309.49	162.667
1310.48	158.507
1311.46	157.272
1312.44	156.248
1313.42	155.169
1314.41	154.001
1315.39	154.3
1316.37	154.778
1317.35	155.615
1318.33	157.081
1319.32	159.224
1320.3	161.879
1321.28	164.934
1322.26	168.153
1323.24	170.94
1324.22	173.057
1325.2	174.386
1326.18	174.977
1327.15	174.907
1328.13	174.125
1329.11	172.53
1330.09	170.359
1331.07	167.757
1332.05	165.447
1333.02	163.181
1334	161.125
1334.98	159.543
1335.95	158.682
1336.93	156.842
1337.91	155.006
1338.88	153.326
1339.86	151.868
1340.83	150.627
1341.81	149.521
1342.78	148.648
1343.76	147.872
1344.73	147.355
1345.7	146.964
1346.68	146.699
1347.65	146.569
1348.62	146.378
1349.6	146.248
1350.57	145.813
1351.54	145.757
1352.51	146.289
1353.49	146.934
1354.46	147.884
1355.43	147.442
1356.4	146.896
1357.37	146.31
1358.34	145.738
1359.31	145.233
1360.28	144.709
1361.25	144.301
1362.22	143.883
1363.19	143.543
1364.16	143.182
1365.12	142.863
1366.09	142.54
1367.06	142.207
1368.03	141.904
1369	141.585
1369.96	141.32
1370.93	141.04
1371.9	140.76
1372.86	140.446
1373.83	140.142
1374.79	139.776
1375.76	139.472
1376.73	139.069
1377.69	138.697
1378.66	138.272
1379.62	138.336
1380.58	138.533
1381.55	138.084
1382.51	137.395
1383.48	136.818
1384.44	136.43
1385.4	136.249
1386.36	136.248
1387.33	136.468
1388.29	136.792
1389.25	137.252
1390.21	137.7
1391.17	138.254
1392.13	138.949
1393.09	139.86
1394.06	138.512
1395.01	138.934
1395.97	139.064
1396.93	138.609
1397.89	137.573
1398.85	135.682
1399.81	132.486
1400.77	127.889
1401.73	127.077
1402.69	130.147
1403.64	129.199
1404.6	128.104
1405.56	127.054
1406.52	126.198
1407.47	125.497
1408.43	124.605
1409.39	123.83
1410.34	124.68
1411.3	125.609
1412.25	125.967
1413.21	125.923
1414.16	125.715
1415.12	125.435
1416.07	125.148
1417.03	124.945
1417.98	124.937
1418.93	124.969
1419.89	125.027
1420.84	125.109
1421.79	124.712
1422.74	124.339
1423.7	124.724
1424.65	125.558
1425.6	126.78
1426.55	128.844
1427.5	130.36
1428.45	130.863
1429.4	131.32
1430.35	131.806
1431.3	132.226
1432.25	132.581
1433.2	132.87
1434.15	133.068
1435.1	133.203
1436.05	133.274
1437	133.241
1437.95	133.11
1438.89	132.891
1439.84	132.506
1440.79	132.084
1441.74	131.66
1442.68	131.19
1443.63	130.615
1444.58	129.839
1445.52	128.827
1446.47	126.69
1447.41	124.695
1448.36	123.019
1449.3	121.378
1450.25	119.887
1451.19	119.022
1452.14	118.054
1453.08	117.053
1454.03	116.514
1454.97	116.655
1455.91	116.976
1456.85	117.259
1457.8	117.472
1458.74	118.108
1459.68	118.911
1460.62	119.658
1461.57	120.191
1462.51	120.384
1463.45	120.253
1464.39	119.586
1465.33	118.657
1466.27	117.519
1467.21	116.437
1468.15	115.222
1469.09	114.108
1470.03	113.186
1470.97	112.464
1471.9	112.305
1472.84	112.224
1473.78	112.198
1474.72	112.164
1475.66	112.145
1476.59	112.124
1477.53	112.165
1478.47	112.218
1479.4	112.319
1480.34	112.438
1481.28	112.601
1482.21	112.796
1483.15	113.058
1484.08	113.335
1485.02	113.654
1485.95	114.024
1486.89	114.405
1487.82	114.907
1488.76	115.476
1489.69	116.105
1490.62	116.855
1491.56	117.535
1492.49	118.16
1493.42	117.622
1494.35	116.468
1495.29	115.854
1496.22	113.189
1497.15	113.134
1498.08	113.054
1499.01	112.819
1499.94	112.578
1500.87	112.305
1501.8	111.9
1502.73	111.407
1503.66	110.973
1504.59	110.719
1505.52	110.953
1506.45	111.654
1507.38	112.671
1508.31	114.213
1509.23	115.262
1510.16	116.409
1511.09	117.741
1512.02	119.314
1512.94	121.109
1513.87	123.1
1514.8	125.318
1515.72	127.729
1516.65	130.422
1517.58	133.271
1518.5	136.466
1519.43	139.803
1520.35	143.169
1521.28	146.524
1522.2	148.867
1523.12	151.479
1524.05	153.714
1524.97	155.466
1525.9	156.06
1526.82	155.97
1527.74	155.295
1528.66	154.089
1529.59	152.364
1530.51	150.262
1531.43	147.605
1532.35	144.407
1533.27	140.793
1534.19	137.078
1535.11	134.073
1536.04	131.59
1536.96	129.341
1537.88	127.129
1538.8	125.009
1539.71	122.99
1540.63	121.115
1541.55	119.39
1542.47	117.814
1543.39	116.441
1544.31	115.229
1545.23	114.049
1546.14	113.273
1547.06	112.708
1547.98	112.149
1548.89	111.896
1549.81	111.699
1550.73	111.601
1551.64	111.484
1552.56	111.393
1553.47	111.307
1554.39	110.72
1555.31	110.143
1556.22	109.427
1557.13	108.711
1558.05	107.919
1558.96	107.068
1559.88	106.189
1560.79	105.296
1561.7	104.466
1562.62	103.625
1563.53	102.963
1564.44	102.426
1565.35	101.986
1566.27	101.524
1567.18	101.507
1568.09	101.518
1569	101.579
1569.91	101.606
1570.82	101.586
1571.73	101.579
1572.64	101.266
1573.55	101.069
1574.46	100.907
1575.37	100.606
1576.28	100.18
1577.19	99.6744
1578.1	99.1214
1579	98.4809
1579.91	97.7568
1580.82	97.4012
1581.73	96.9905
1582.63	96.6163
1583.54	96.3829
1584.45	96.1544
1585.35	96.1921
1586.26	96.3654
1587.17	96.6787
1588.07	97.1695
1588.98	97.7221
1589.88	98.1619
1590.79	98.7893
1591.69	99.4345
1592.6	100.166
1593.5	100.785
1594.4	101.226
1595.31	101.621
1596.21	102.216
1597.11	103.043
1598.02	103.706
1598.92	104.212
1599.82	104.473
1600.72	104.572
1601.63	104.372
1602.53	103.674
1603.43	103.12
1604.33	103.125
1605.23	103.377
1606.13	103.656
1607.03	103.937
1607.93	104.142
1608.83	104.313
1609.73	104.391
1610.63	104.192
1611.53	103.986
1612.43	103.718
1613.32	103.489
1614.22	103.175
1615.12	102.874
1616.02	102.544
1616.92	102.198
1617.81	101.873
1618.71	101.572
1619.61	101.28
1620.5	101.018
1621.4	100.856
1622.29	100.668
1623.19	100.471
1624.08	100.304
1624.98	100.139
1625.87	99.995
1626.77	99.8738
1627.66	99.7937
1628.56	99.7689
1629.45	99.7765
1630.34	99.9469
1631.24	100.21
1632.13	100.588
1632.84	101.072
1633.77	101.495
1634.7	101.918
1635.63	102.426
1636.56	102.821
1637.49	103.066
1638.42	103.256
1639.34	103.166
1640.27	103.043
1641.2	102.662
1642.13	102.24
1643.05	101.677
1643.98	101.03
1644.91	100.289
1645.83	99.4613
1646.76	98.5435
1647.68	97.5652
1648.61	96.4965
1649.54	95.4763
1650.46	96.8139
1651.39	94.7472
1652.31	93.0254
1653.23	92.3827
1654.16	92.6006
1655.08	93.0529
1656.01	93.2932
1656.93	93.2513
1657.85	93.1926
1658.78	92.7757
1659.7	93.2127
1660.62	93.7557
1661.54	94.4248
1662.47	95.0026
1663.39	95.4527
1664.31	95.8247
1665.23	95.9817
1666.15	96.1196
1667.07	96.1509
1667.99	95.998
1668.92	95.7908
1669.84	95.5306
1670.76	95.2429
1671.68	94.9185
1672.6	94.6124
1673.52	94.2623
1674.43	93.9488
1675.35	93.5222
1676.27	93.4667
1677.19	93.6021
1678.11	93.7392
1679.03	93.8244
1679.95	93.8836
1680.86	93.9343
1681.78	93.9594
1682.7	94.0056
1683.61	94.0636
1684.53	93.9218
1685.45	93.7481
1686.36	93.3781
1687.28	92.8524
1688.2	92.2612
1689.11	91.5899
1690.03	90.8819
1690.94	90.1813
1691.86	89.4265
1692.77	88.6849
1693.69	87.9372
1694.6	87.2364
1695.52	86.5617
1696.43	85.9958
1697.34	86.0424
1698.26	86.1554
1699.17	86.493
1700.08	86.8531
1700.99	87.2922
1701.91	87.73
1702.82	87.8437
1703.73	88.1081
1704.64	88.1669
1705.55	88.2287
1706.47	88.2146
1707.38	88.1944
1708.29	88.1033
1709.2	88.0025
1710.11	87.8522
1711.02	87.6867
1711.93	87.4895
1712.84	87.2735
1713.75	87.0498
1714.66	86.7717
1715.57	86.4877
1716.48	86.1661
1717.39	85.8277
1718.29	85.4724
1719.2	85.1145
1720.11	84.8082
1721.02	84.5507
1721.93	84.1526
1722.83	83.7701
1723.74	83.3803
1724.65	82.9946
1725.55	82.6509
1726.46	82.2549
1727.37	81.9615
1728.27	81.7557
1729.18	81.5905
1730.08	81.7741
1730.99	81.9108
1731.89	82.2032
1732.8	82.5116
1733.7	82.8055
1734.61	83.1004
1735.51	83.372
1736.42	83.6556
1737.32	83.9167
1738.22	84.0335
1739.13	84.2224
1740.03	83.9548
1740.93	83.7366
1741.83	83.4002
1742.74	82.9759
1743.64	82.487
1744.54	81.9833
1745.44	81.4846
1746.34	81.0651
1747.24	80.6096
1748.15	80.2671
1749.05	79.889
1749.95	80.1174
1750.85	80.5362
1751.75	80.1969
1752.65	79.7957
1753.55	79.0934
1754.45	78.6022
1755.35	78.2074
1756.25	77.9188
1757.14	77.5939
1758.04	77.4007
1758.94	77.2893
1759.84	77.2486
1760.74	77.2253
1761.63	77.2053
1762.53	77.153
1763.43	77.1012
1764.33	76.9817
1765.22	76.8572
1766.12	76.6532
1767.02	76.4094
1767.91	76.0692
1768.81	75.5792
1769.7	74.7954
1770.6	73.7954
1771.49	72.8872
1772.39	72.0099
1773.28	71.3404
1774.18	71.7216
1775.07	72.3185
1775.97	73.0472
1776.86	74.0829
1777.75	75.0633
1778.65	75.9402
1779.54	76.5764
1780.43	77.0163
1781.33	77.0316
1782.22	76.7372
1783.11	76.252
1784	75.5862
1784.89	74.7794
1785.79	73.9413
1786.68	73.0151
1787.57	71.9816
1788.46	70.9596
1789.35	70.0783
1790.24	69.5084
1791.13	69.2356
1792.02	69.5646
1792.91	70.2721
1793.8	71.0543
1794.69	71.7534
1795.58	72.5936
1796.47	73.6412
1797.36	75.1979
1798.25	76.8817
1799.13	76.7943
