Acq. time (s)=	15
Accumulations=	2
Range (cm-¹)=	600...1800
Windows=	2
Autofocus=	Off
AutoExposure=	On
Spike filter=	Multiple accum.
Delay time (s)=	1
Binning=	1
Readout mode=	Signal
DeNoise=	Standard
ICS correction=	Off
Dark correction=	Off
Inst. Process=	Off
Instrument=	XploRA
Detector=	Syncerity
Objective=	x20LWD
Grating=	1200 gr/mm
Filter=	25%
Laser (nm)=	785 
Slit (µm)=	100 
Hole (µm)=	300 
Laser pol=	None
Raman pol=	None
Output=	Camera
StageXY=	Marzhauser
StageZ=	
X (µm)=	5329.7
Y (µm)=	-3697.9
Project=	
Sample=	
Site=	
Title=	To9-T
Remark=	
Date=	14.10.2022 23:37
Acquired=	14.10.2022 23:37:19
600.787	315.175
601.956	319.268
603.126	321.7
604.294	323.036
605.463	323.709
606.631	322.646
607.8	323.324
608.967	324.585
610.135	326.295
611.302	329.062
612.468	332.05
613.635	335.052
614.802	337.592
615.968	340.207
617.133	342.606
618.299	344.783
619.464	346.943
620.629	348.375
621.793	349.47
622.958	350.107
624.121	350.596
625.285	350.958
626.448	351.242
627.612	351.926
628.774	352.27
629.937	352.545
631.099	352.805
632.261	353.019
633.423	353.251
634.584	353.828
635.745	355.207
636.906	355.733
638.066	356.254
639.227	356.415
640.386	356.425
641.546	356.629
642.705	356.855
643.864	357.502
645.023	358.126
646.181	358.973
647.339	359.851
648.497	360.87
649.655	361.967
650.812	363.13
651.969	364.336
653.125	365.535
654.282	366.775
655.438	368.033
656.593	369.454
657.75	370.682
658.905	371.672
660.059	370.917
661.214	369.662
662.368	367.364
663.522	365.071
664.676	363.474
665.83	362.595
666.983	362.502
668.136	362.985
669.288	363.922
670.441	365.32
671.592	366.91
672.744	368.546
673.895	370.576
675.046	371.401
676.197	372.262
677.348	374.199
678.498	375.915
679.648	377.32
680.798	377.813
681.947	377.722
683.096	377.073
684.245	375.858
685.394	374.675
686.542	374.197
687.69	374.628
688.837	375.328
689.984	376.423
691.132	377.562
692.278	378.706
693.425	378.671
694.571	378.239
695.717	377.632
696.863	376.849
698.008	376.13
699.152	375.34
700.298	374.149
701.442	372.843
702.586	371.531
703.73	370.241
704.873	369.136
706.017	368.273
707.16	367.396
708.302	366.893
709.445	366.821
710.586	366.961
711.729	367.42
712.87	367.705
714.012	368.107
715.152	368.292
716.293	368.331
717.433	368.144
718.573	367.618
719.713	367.448
720.853	367.27
721.991	367.274
723.131	367.18
724.269	366.995
725.408	366.633
726.545	365.968
727.683	365.462
728.821	365.136
729.958	365.112
731.095	366.07
732.231	367.454
733.368	369.416
734.503	371.384
735.639	373.242
736.775	374.578
737.91	375.572
739.045	376.302
740.179	376.785
741.313	377
742.447	376.737
743.581	376
744.714	375.009
745.847	373.928
746.98	372.796
748.113	372.037
749.245	371.244
750.377	370.541
751.509	370.357
752.64	370.188
753.771	369.435
754.902	367.11
756.033	364.526
757.163	361.658
758.293	358.902
759.423	355.98
760.551	353.127
761.681	350.413
762.81	347.748
763.938	345.185
765.066	342.784
766.194	340.742
767.321	339.211
768.449	339.127
769.576	339.306
770.703	339.547
771.83	339.449
772.955	339.557
774.081	339.604
775.207	339.626
776.332	339.574
777.457	339.409
778.582	339.113
779.707	338.83
780.831	338.41
781.954	337.891
783.078	337.224
784.201	336.343
785.324	335.19
786.447	333.238
787.569	330.716
788.691	327.873
789.813	325.423
790.935	324.287
792.056	323.655
793.177	323.604
794.297	323.978
795.418	324.61
796.539	326.328
797.658	328.017
798.777	328.933
799.897	328.491
801.016	327.954
802.134	327.307
803.253	326.634
804.371	324.726
805.489	322.764
806.606	320.722
807.723	319.051
808.84	317.588
809.957	316.275
811.073	315.092
812.19	314.163
813.305	313.338
814.421	312.834
815.536	312.624
816.651	312.624
817.766	312.763
818.88	313.034
819.994	313.399
821.108	313.819
822.221	314.151
823.335	313.865
824.448	313.601
825.56	312.976
826.673	312.585
827.784	312.486
828.897	312.537
830.008	312.476
831.119	312.39
832.23	312.186
833.341	311.795
834.451	311.296
835.561	310.645
836.671	309.991
837.78	308.596
838.89	307.163
839.998	305.561
841.108	304.097
842.216	303.957
843.324	303.936
844.431	304.247
845.539	304.54
846.646	304.63
847.753	304.696
848.859	304.628
849.966	305.127
851.071	305.836
852.178	306.48
853.283	307.02
854.388	307.506
855.494	307.087
856.598	306.297
857.703	305.344
858.806	304.085
859.91	302.712
861.014	301.209
862.116	299.757
863.22	298.118
864.322	296.443
865.425	294.637
866.527	292.784
867.628	290.937
868.73	289.108
869.831	287.342
870.932	285.713
872.032	284.676
873.133	283.281
874.233	282.003
875.333	281.624
876.432	281.926
877.532	282.155
878.631	282.483
879.729	282.78
880.828	282.995
881.926	283.35
883.023	283.718
884.121	284.122
885.218	284.49
886.315	284.911
887.412	285.356
888.508	285.756
889.604	286.232
890.699	286.392
891.795	286.497
892.89	286.097
893.985	285.854
895.08	285.625
896.174	285.611
897.268	285.632
898.362	285.712
899.456	285.896
900.549	286.119
901.642	284.668
902.734	283.179
903.827	281.62
904.919	280.99
906.011	280.668
907.102	280.68
908.193	280.989
909.284	281.445
910.375	281.931
911.465	282.504
912.555	283.243
913.645	283.905
914.734	284.367
915.824	287.357
916.913	285.895
918.001	283.653
919.09	280.863
920.177	277.638
921.266	274.319
922.353	270.194
923.44	266.197
924.527	262.401
925.614	259.825
926.7	258.091
927.786	257.416
928.873	257.179
929.958	257.257
931.043	257.363
932.128	257.357
933.213	257.333
934.297	257.157
935.381	256.884
936.465	256.31
937.549	255.545
938.632	254.075
939.715	252.173
940.798	250.152
941.881	248.95
942.962	248.284
944.044	247.808
945.125	247.794
946.207	247.945
947.288	248.239
948.368	248.562
949.449	248.86
950.529	249.16
951.61	249.461
952.689	249.455
953.769	249.245
954.847	248.95
955.926	248.968
957.004	249.147
958.082	249.406
959.16	249.949
960.238	250.424
961.316	250.854
962.392	251.239
963.469	251.382
964.546	251.484
965.622	251.563
966.698	251.65
967.774	251.695
968.849	251.985
969.924	251.787
970.998	251.588
972.073	251.324
973.148	251.008
974.221	250.697
975.295	250.394
976.369	250.148
977.441	250.086
978.514	250.272
979.587	250.549
980.659	251.008
981.731	251.475
982.802	252.03
983.874	252.593
984.945	253.162
986.016	253.715
987.087	253.827
988.157	254.383
989.227	254.816
990.296	255.218
991.366	255.509
992.435	255.692
993.504	255.747
994.573	255.635
995.641	255.33
996.709	254.843
997.777	253.767
998.844	252.444
999.911	251.03
1000.98	249.187
1002.05	247.328
1003.11	245.362
1004.18	243.414
1005.24	241.895
1006.31	240.416
1007.37	239.071
1008.44	238.101
1009.5	237.515
1010.57	237.045
1011.63	236.871
1012.7	237.011
1013.76	237.293
1014.82	237.65
1015.89	237.256
1016.95	236.23
1018.01	234.906
1019.07	233.496
1020.13	231.954
1021.2	230.517
1022.26	228.749
1023.32	226.895
1024.38	225.107
1025.44	223.316
1026.5	221.629
1027.56	219.991
1028.62	218.496
1029.68	217.171
1030.74	215.921
1031.8	214.963
1032.85	214.375
1033.91	213.806
1034.97	213.491
1036.03	213.293
1037.09	213.314
1038.14	213.585
1039.2	214.258
1040.26	215.606
1041.31	217.484
1042.37	219.389
1043.42	221.167
1044.48	222.521
1045.53	222.987
1046.59	222.955
1047.64	222.607
1048.7	222.063
1049.75	221.136
1050.81	219.964
1051.86	218.93
1052.91	217.775
1053.97	216.589
1055.02	215.49
1056.07	214.83
1057.12	214.083
1058.17	213.503
1059.23	212.965
1060.28	212.481
1061.33	212.312
1062.38	212.232
1063.43	212.213
1064.48	212.302
1065.53	212.324
1066.58	212.224
1067.63	211.451
1068.68	210.553
1069.72	209.884
1070.77	209.387
1071.82	209.037
1072.87	208.229
1073.92	207.145
1074.96	206.188
1076.01	205.246
1077.06	204.342
1078.1	203.552
1079.15	202.802
1080.2	202.105
1081.24	201.482
1082.29	200.944
1083.33	200.568
1084.38	200.049
1085.42	199.577
1086.47	199.09
1087.51	198.601
1088.55	198.178
1089.6	197.593
1090.64	197.701
1091.68	198.182
1092.73	198.69
1093.77	199.206
1094.81	199.817
1095.85	200.275
1096.89	200.426
1097.93	200.523
1098.98	200.401
1100.02	200.197
1101.06	199.901
1102.1	199.581
1103.14	199.223
1104.18	198.836
1105.21	198.427
1106.25	197.978
1107.29	197.553
1108.33	197.116
1109.37	197.031
1110.41	196.873
1111.44	196.732
1112.48	196.653
1113.52	196.596
1114.56	196.545
1115.59	196.398
1116.63	196.228
1117.66	195.899
1118.7	195.058
1119.73	194.248
1120.77	193.276
1121.8	191.989
1122.84	191.806
1123.87	192.467
1124.91	193.165
1125.94	193.931
1126.97	194.359
1128.01	195.044
1129.04	195.285
1130.07	195.51
1131.11	195.627
1132.14	195.821
1133.17	195.995
1134.2	196.231
1135.23	196.529
1136.26	196.878
1137.29	197.369
1138.32	197.927
1139.35	198.845
1140.38	199.72
1141.41	200.747
1142.44	201.842
1143.47	203.096
1144.5	204.456
1145.53	206.064
1146.56	207.785
1147.58	209.668
1148.61	211.714
1149.64	211.359
1150.67	213.064
1151.69	215.515
1152.72	219.88
1153.75	223.722
1154.77	226.043
1155.8	227.076
1156.82	226.825
1157.85	225.223
1158.87	222.384
1159.9	218.139
1160.92	210.328
1161.95	205.465
1162.97	201.201
1163.99	197.8
1165.02	194.561
1166.04	191.293
1167.06	188.428
1168.08	185.897
1169.11	183.981
1170.13	182.78
1171.15	182.152
1172.17	181.996
1173.19	182.625
1174.21	183.927
1175.23	185.616
1176.25	187.533
1177.27	189.939
1178.29	192.182
1179.31	194.221
1180.33	195.947
1181.35	197.286
1182.37	198.025
1183.39	198.43
1184.4	198.506
1185.42	198.232
1186.44	197.654
1187.46	196.64
1188.47	195.32
1189.49	193.68
1190.51	191.588
1191.52	189.335
1192.54	186.938
1193.55	184.576
1194.57	182.962
1195.58	181.622
1196.6	180.433
1197.61	179.293
1198.63	178.241
1199.64	177.218
1200.65	175.964
1201.67	174.822
1202.68	173.984
1203.69	174.796
1204.7	174.311
1205.72	173.885
1206.73	173.977
1207.74	174.546
1208.75	175.372
1209.76	176.207
1210.77	177.092
1211.78	177.923
1212.79	178.79
1213.8	179.56
1214.81	180.237
1215.82	180.884
1216.83	181.378
1217.84	181.804
1218.85	181.916
1219.86	182.103
1220.87	182.315
1221.87	181.685
1222.88	180.486
1223.89	179.129
1224.9	177.774
1225.9	176.748
1226.91	175.59
1227.92	174.481
1228.92	173.338
1229.93	172.07
1230.93	170.694
1231.94	169.087
1232.94	167.393
1233.95	165.662
1234.95	164.122
1235.95	163.614
1236.96	164.001
1237.96	164.724
1238.96	164.734
1239.97	164.105
1240.97	163.122
1241.97	161.922
1242.97	160.691
1243.98	159.378
1244.98	158.202
1245.98	156.909
1246.98	155.676
1247.98	154.629
1248.98	153.794
1249.98	153.09
1250.98	153.412
1251.98	154.24
1252.98	155.123
1253.98	155.986
1254.98	156.37
1255.98	156.701
1256.97	156.916
1257.97	157.153
1258.97	157.033
1259.97	156.86
1260.97	156.61
1261.96	156.313
1262.96	155.99
1263.95	155.598
1264.95	155.267
1265.95	154.85
1266.94	154.278
1267.94	153.853
1268.93	153.482
1269.93	153.195
1270.92	152.955
1271.92	152.894
1272.91	152.645
1273.9	152.149
1274.9	151.555
1275.89	151.078
1276.88	150.767
1277.87	151.119
1278.87	151.971
1279.86	153.767
1280.85	155.601
1281.84	157.001
1282.83	157.766
1283.82	157.884
1284.81	157.687
1285.81	156.679
1286.8	155.45
1287.79	154.108
1288.77	152.599
1289.76	151.261
1290.75	149.977
1291.74	148.817
1292.73	147.753
1293.72	146.806
1294.71	145.988
1295.69	145.358
1296.68	144.834
1297.67	144.372
1298.65	144.16
1299.64	144.431
1300.63	144.667
1301.61	144.986
1302.6	145.222
1303.58	145.417
1304.57	144.965
1305.55	144.552
1306.54	144.067
1307.52	143.576
1308.51	143.097
1309.49	142.729
1310.48	142.372
1311.46	142.181
1312.44	142.15
1313.42	142.087
1314.41	142.354
1315.39	142.617
1316.37	143.012
1317.35	143.688
1318.33	145.034
1319.32	147.502
1320.3	149.792
1321.28	151.906
1322.26	153.741
1323.24	155.143
1324.22	156.451
1325.2	157.439
1326.18	158.085
1327.15	158.398
1328.13	158.258
1329.11	157.714
1330.09	156.713
1331.07	155.211
1332.05	152.561
1333.02	149.951
1334	147.307
1334.98	144.756
1335.95	142.966
1336.93	141.364
1337.91	140.079
1338.88	139.013
1339.86	138.308
1340.83	137.818
1341.81	137.646
1342.78	137.744
1343.76	138.128
1344.73	138.743
1345.7	139.645
1346.68	140.56
1347.65	141.452
1348.62	142.065
1349.6	142.081
1350.57	141.936
1351.54	141.227
1352.51	140.395
1353.49	139.163
1354.46	137.82
1355.43	136.461
1356.4	135.082
1357.37	133.799
1358.34	132.899
1359.31	132.056
1360.28	131.332
1361.25	130.805
1362.22	130.366
1363.19	130.412
1364.16	130.618
1365.12	130.945
1366.09	131.259
1367.06	131.513
1368.03	131.095
1369	130.575
1369.96	129.224
1370.93	128.008
1371.9	128.23
1372.86	128.731
1373.83	129.359
1374.79	130.112
1375.76	130.627
1376.73	131.22
1377.69	131.94
1378.66	132.591
1379.62	133.221
1380.58	133.612
1381.55	133.225
1382.51	130.966
1383.48	130.038
1384.44	129.247
1385.4	128.431
1386.36	127.599
1387.33	126.812
1388.29	126.071
1389.25	125.312
1390.21	124.936
1391.17	124.846
1392.13	124.484
1393.09	124.114
1394.06	123.71
1395.01	123.017
1395.97	122.545
1396.93	122.078
1397.89	121.531
1398.85	121.404
1399.81	121.489
1400.77	121.599
1401.73	121.861
1402.69	122.03
1403.64	122.176
1404.6	122.307
1405.56	122.135
1406.52	122.038
1407.47	121.957
1408.43	121.879
1409.39	121.344
1410.34	120.745
1411.3	120.092
1412.25	119.354
1413.21	118.613
1414.16	117.791
1415.12	116.999
1416.07	116.189
1417.03	115.421
1417.98	115.195
1418.93	114.751
1419.89	114.128
1420.84	113.546
1421.79	112.983
1422.74	112.443
1423.7	112.011
1424.65	111.678
1425.6	111.474
1426.55	111.432
1427.5	111.547
1428.45	112.267
1429.4	112.824
1430.35	113.564
1431.3	114.355
1432.25	115.229
1433.2	116.095
1434.15	117.012
1435.1	117.966
1436.05	118.908
1437	119.818
1437.95	120.596
1438.89	121.284
1439.84	121.337
1440.79	121.18
1441.74	120.824
1442.68	120.518
1443.63	120.197
1444.58	119.956
1445.52	119.715
1446.47	119.5
1447.41	119.234
1448.36	118.948
1449.3	118.624
1450.25	118.296
1451.19	117.95
1452.14	117.605
1453.08	117.22
1454.03	116.88
1454.97	116.482
1455.91	116.136
1456.85	115.555
1457.8	114.987
1458.74	114.384
1459.68	113.792
1460.62	113.169
1461.57	112.603
1462.51	111.992
1463.45	111.178
1464.39	110.773
1465.33	110.383
1466.27	110.043
1467.21	109.714
1468.15	109.836
1469.09	109.702
1470.03	109.624
1470.97	109.565
1471.9	109.49
1472.84	109.441
1473.78	109.379
1474.72	109.347
1475.66	109.306
1476.59	109.293
1477.53	109.22
1478.47	109.196
1479.4	109.192
1480.34	109.184
1481.28	109.182
1482.21	109.167
1483.15	109.16
1484.08	109.187
1485.02	109.289
1485.95	109.367
1486.89	109.484
1487.82	109.576
1488.76	109.758
1489.69	109.902
1490.62	110.057
1491.56	110.19
1492.49	110.272
1493.42	110.331
1494.35	110.297
1495.29	110.188
1496.22	109.429
1497.15	108.423
1498.08	107.272
1499.01	106.184
1499.94	105.184
1500.87	104.29
1501.8	103.827
1502.73	103.629
1503.66	103.536
1504.59	104.028
1505.52	104.713
1506.45	105.646
1507.38	106.394
1508.31	107.497
1509.23	108.975
1510.16	110.849
1511.09	112.56
1512.02	113.8
1512.94	115.507
1513.87	117.277
1514.8	119.026
1515.72	121.377
1516.65	123.781
1517.58	126.203
1518.5	128.556
1519.43	130.722
1520.35	132.267
1521.28	133.986
1522.2	135.475
1523.12	136.729
1524.05	137.65
1524.97	138.319
1525.9	138.647
1526.82	138.484
1527.74	138.165
1528.66	137.164
1529.59	135.585
1530.51	133.864
1531.43	131.828
1532.35	129.652
1533.27	127.267
1534.19	124.837
1535.11	122.661
1536.04	120.473
1536.96	117.986
1537.88	115.415
1538.8	112.846
1539.71	110.544
1540.63	108.546
1541.55	107.111
1542.47	106.389
1543.39	105.842
1544.31	105.539
1545.23	105.276
1546.14	105.262
1547.06	105.257
1547.98	105.184
1548.89	105.182
1549.81	105.114
1550.73	104.883
1551.64	104.498
1552.56	103.945
1553.47	103.149
1554.39	102.186
1555.31	100.481
1556.22	98.7566
1557.13	96.9112
1558.05	95.1187
1558.96	93.3615
1559.88	92.1885
1560.79	91.131
1561.7	90.1681
1562.62	89.4603
1563.53	88.883
1564.44	88.5076
1565.35	88.1948
1566.27	87.6564
1567.18	87.1006
1568.09	86.4193
1569	86.0795
1569.91	85.9055
1570.82	85.8315
1571.73	85.7742
1572.64	85.8356
1573.55	85.8921
1574.46	85.8985
1575.37	85.9549
1576.28	86.0154
1577.19	86.0205
1578.1	86.0061
1579	85.9741
1579.91	85.9164
1580.82	85.5947
1581.73	85.1432
1582.63	84.6867
1583.54	84.119
1584.45	83.5799
1585.35	82.8325
1586.26	82.1747
1587.17	81.6614
1588.07	81.2644
1588.98	80.9861
1589.88	80.8405
1590.79	80.8217
1591.69	80.6414
1592.6	80.3843
1593.5	80.4189
1594.4	80.4568
1595.31	80.5385
1596.21	80.6022
1597.11	80.8692
1598.02	81.195
1598.92	81.5701
1599.82	81.8759
1600.72	82.0522
1601.63	81.9743
1602.53	81.8693
1603.43	81.8462
1604.33	81.9264
1605.23	81.9669
1606.13	82.0483
1607.03	82.1178
1607.93	82.1764
1608.83	82.2148
1609.73	82.2211
1610.63	82.1416
1611.53	82
1612.43	81.8749
1613.32	81.7346
1614.22	81.6234
1615.12	81.5105
1616.02	81.3947
1616.92	81.2772
1617.81	81.143
1618.71	80.9987
1619.61	80.619
1620.5	80.2472
1621.4	79.874
1622.29	79.2873
1623.19	78.4157
1624.08	77.1841
1624.98	76.2431
1625.87	75.7316
1626.77	75.3965
1627.66	75.2739
1628.56	74.9727
1629.45	74.7241
1630.34	74.9979
1631.24	75.5973
1632.13	76.341
1632.84	77.1132
1633.77	78.1554
1634.7	78.5474
1635.63	79.0655
1636.56	79.3419
1637.49	79.2696
1638.42	78.9129
1639.34	78.5224
1640.27	77.975
1641.2	77.3329
1642.13	75.9954
1643.05	74.997
1643.98	74.2439
1644.91	73.9179
1645.83	74.1787
1646.76	73.9555
1647.68	73.3354
1648.61	72.9557
1649.54	72.7525
1650.46	72.7157
1651.39	72.5603
1652.31	72.84
1653.23	73.2739
1654.16	73.8303
1655.08	74.3615
1656.01	74.902
1656.93	75.4125
1657.85	74.4375
1658.78	72.9127
1659.7	71.2498
1660.62	69.6596
1661.54	68.0247
1662.47	67.0707
1663.39	66.69
1664.31	66.3523
1665.23	66.1717
1666.15	66.6717
1667.07	66.9056
1667.99	67.2044
1668.92	67.8317
1669.84	68.9581
1670.76	70.1244
1671.68	70.8027
1672.6	71.0234
1673.52	71.6617
1674.43	72.3197
1675.35	72.2648
1676.27	72.2999
1677.19	72.2844
1678.11	71.995
1679.03	71.5438
1679.95	70.8436
1680.86	70.2354
1681.78	69.6123
1682.7	69.3176
1683.61	69.4024
1684.53	69.4459
1685.45	69.233
1686.36	69.3896
1687.28	69.3934
1688.2	69.499
1689.11	69.3506
1690.03	68.824
1690.94	68.2912
1691.86	67.8052
1692.77	67.3179
1693.69	66.9735
1694.6	66.8889
1695.52	66.6675
1696.43	66.6153
1697.34	66.8759
1698.26	67.1143
1699.17	65.5866
1700.08	67.1769
1700.99	67.5684
1701.91	67.305
1702.82	66.9439
1703.73	66.7753
1704.64	66.4989
1705.55	66.4425
1706.47	64.6663
1707.38	62.5286
1708.29	61.5249
1709.2	63.3361
1710.11	64.1318
1711.02	63.7333
1711.93	63.0468
1712.84	62.6352
1713.75	62.3598
1714.66	62.4765
1715.57	62.8395
1716.48	63.0763
1717.39	63.6041
1718.29	63.7985
1719.2	63.9567
1720.11	64.119
1721.02	64.1486
1721.93	64.4691
1722.83	64.6365
1723.74	64.9716
1724.65	64.947
1725.55	64.8098
1726.46	64.0376
1727.37	63.4807
1728.27	62.8561
1729.18	62.5765
1730.08	62.3829
1730.99	62.3364
1731.89	61.5135
1732.8	61.0236
1733.7	61.1953
1734.61	61.3648
1735.51	61.6916
1736.42	62.0272
1737.32	62.2371
1738.22	62.4145
1739.13	62.662
1740.03	62.9746
1740.93	62.9747
1741.83	63.1553
1742.74	62.9965
1743.64	62.5431
1744.54	61.8344
1745.44	61.3871
1746.34	60.8256
1747.24	60.3545
1748.15	59.9399
1749.05	59.5009
1749.95	59.4782
1750.85	59.0681
1751.75	59.1101
1752.65	59.3184
1753.55	60.6111
1754.45	61.1557
1755.35	61.5925
1756.25	61.598
1757.14	61.5111
1758.04	61.3281
1758.94	61.1048
1759.84	60.923
1760.74	60.7995
1761.63	60.7416
1762.53	60.4915
1763.43	59.4097
1764.33	58.5521
1765.22	57.8797
1766.12	57.3758
1767.02	57.0527
1767.91	57.7498
1768.81	57.6807
1769.7	57.7173
1770.6	57.9416
1771.49	58.3691
1772.39	59.0208
1773.28	59.4131
1774.18	59.7945
1775.07	59.7078
1775.97	58.8756
1776.86	58.1658
1777.75	57.9829
1778.65	58.2084
1779.54	58.4126
1780.43	58.6353
1781.33	58.8242
1782.22	58.9688
1783.11	58.2266
1784	57.4375
1784.89	56.8032
1785.79	56.1582
1786.68	55.977
1787.57	55.9122
1788.46	56.0827
1789.35	56.4629
1790.24	56.6963
1791.13	57.145
1792.02	57.2508
1792.91	57.0691
1793.8	56.6224
1794.69	56.2129
1795.58	55.7213
1796.47	55.3205
1797.36	54.8052
1798.25	54.3594
1799.13	54.2067
