Acq. time (s)=	15
Accumulations=	2
Range (cm-¹)=	600...1800
Windows=	2
Autofocus=	Off
AutoExposure=	On
Spike filter=	Multiple accum.
Delay time (s)=	1
Binning=	1
Readout mode=	Signal
DeNoise=	Standard
ICS correction=	Off
Dark correction=	Off
Inst. Process=	Off
Instrument=	XploRA
Detector=	Syncerity
Objective=	x20LWD
Grating=	1200 gr/mm
Filter=	25%
Laser (nm)=	785 
Slit (µm)=	100 
Hole (µm)=	300 
Laser pol=	None
Raman pol=	None
Output=	Camera
StageXY=	Marzhauser
StageZ=	
X (µm)=	4354.6
Y (µm)=	-6465.9
Project=	
Sample=	
Site=	
Title=	To8-T
Remark=	
Date=	14.10.2022 23:09
Acquired=	14.10.2022 23:09:58
600.787	2779.34
601.956	2802.82
603.126	2828.69
604.294	2855.73
605.463	2881.15
606.631	2903.1
607.8	2923.52
608.967	2942.76
610.135	2962.62
611.302	2982.25
612.468	3000.95
613.635	3018.92
614.802	3036.25
615.968	3053.44
617.133	3070.47
618.299	3087.03
619.464	3102.83
620.629	3117.18
621.793	3130.36
622.958	3143.16
624.121	3157.11
625.285	3170.94
626.448	3185.15
627.612	3197.28
628.774	3205.85
629.937	3211.44
631.099	3214.6
632.261	3216.17
633.423	3217.73
634.584	3219.08
635.745	3219.59
636.906	3219.34
638.066	3220.2
639.227	3221.51
640.386	3223.41
641.546	3226.81
642.705	3227.8
643.864	3230.61
645.023	3237.03
646.181	3242.11
647.339	3246.76
648.497	3249.51
649.655	3252.3
650.812	3255.11
651.969	3258.13
653.125	3262.88
654.282	3268.36
655.438	3274.22
656.593	3280.11
657.75	3285.44
658.905	3291.24
660.059	3297.2
661.214	3303.72
662.368	3310.06
663.522	3312.12
664.676	3315.64
665.83	3317.39
666.983	3320.36
668.136	3325.03
669.288	3329.76
670.441	3334.14
671.592	3337.67
672.744	3339.4
673.895	3341.2
675.046	3343.42
676.197	3347.78
677.348	3353.02
678.498	3359.59
679.648	3367.44
680.798	3372.35
681.947	3372.93
683.096	3371.73
684.245	3371.07
685.394	3370.05
686.542	3368.93
687.69	3370.78
688.837	3370.53
689.984	3367.17
691.132	3366.67
692.278	3365.52
693.425	3362.55
694.571	3359.13
695.717	3353.88
696.863	3352.49
698.008	3351.26
699.152	3349.78
700.298	3347.55
701.442	3344.15
702.586	3338.94
703.73	3332.57
704.873	3325.66
706.017	3319.55
707.16	3313.48
708.302	3307.42
709.445	3300.75
710.586	3292.73
711.729	3282.87
712.87	3275.69
714.012	3267.05
715.152	3261.51
716.293	3257.22
717.433	3256.51
718.573	3256.48
719.713	3255.98
720.853	3255.09
721.991	3252.84
723.131	3249.14
724.269	3241.97
725.408	3235.97
726.545	3229.3
727.683	3226.77
728.821	3223.05
729.958	3215.09
731.095	3219.84
732.231	3223
733.368	3239.98
734.503	3250.32
735.639	3263.38
736.775	3279.25
737.91	3297.17
739.045	3316.58
740.179	3342.64
741.313	3355.82
742.447	3363.58
743.581	3364.83
744.714	3359.77
745.847	3348.07
746.98	3333.01
748.113	3303.38
749.245	3282.38
750.377	3262.82
751.509	3243.28
752.64	3223.1
753.771	3209.94
754.902	3197.13
756.033	3179.82
757.163	3162.25
758.293	3143.88
759.423	3125.69
760.551	3111.28
761.681	3095.78
762.81	3080.05
763.938	3065.66
765.066	3048.63
766.194	3029.19
767.321	3014.14
768.449	3001.88
769.576	2993.05
770.703	2987.04
771.83	2984.66
772.955	2981.63
774.081	2980.48
775.207	2979.78
776.332	2979.22
777.457	2977.62
778.582	2976.16
779.707	2974.22
780.831	2970.67
781.954	2963.27
783.078	2951.67
784.201	2942.11
785.324	2924.17
786.447	2913.07
787.569	2900.23
788.691	2886.97
789.813	2875.91
790.935	2864.98
792.056	2853.89
793.177	2844.77
794.297	2836.85
795.418	2828.16
796.539	2819.49
797.658	2809.81
798.777	2801.1
799.897	2794.16
801.016	2788.06
802.134	2782.7
803.253	2778.02
804.371	2773.66
805.489	2769.59
806.606	2766.59
807.723	2763.57
808.84	2760.4
809.957	2755.86
811.073	2750.88
812.19	2745.08
813.305	2738.45
814.421	2731.35
815.536	2724.25
816.651	2716.82
817.766	2709.43
818.88	2701.84
819.994	2695.66
821.108	2692.54
822.221	2691.35
823.335	2691.4
824.448	2694.47
825.56	2696.56
826.673	2697.96
827.784	2700.16
828.897	2702.99
830.008	2705.57
831.119	2707.65
832.23	2708.17
833.341	2708.22
834.451	2706.61
835.561	2700.45
836.671	2693.2
837.78	2686.14
838.89	2677.99
839.998	2669.73
841.108	2662.03
842.216	2656.81
843.324	2652.63
844.431	2645.57
845.539	2640.37
846.646	2636.14
847.753	2633.54
848.859	2631.04
849.966	2628.59
851.071	2624.77
852.178	2620.55
853.283	2615.92
854.388	2610.4
855.494	2602.79
856.598	2592.13
857.703	2579.03
858.806	2565.91
859.91	2555.72
861.014	2545.56
862.116	2535.97
863.22	2526.71
864.322	2517.17
865.425	2507.16
866.527	2497.18
867.628	2491.49
868.73	2483.74
869.831	2478.24
870.932	2472.99
872.032	2469.2
873.133	2466.47
874.233	2464.46
875.333	2462.11
876.432	2460.79
877.532	2459.97
878.631	2458.82
879.729	2456.63
880.828	2456.14
881.926	2455.94
883.023	2455.74
884.121	2455.6
885.218	2455.71
886.315	2453.56
887.412	2451.52
888.508	2450.21
889.604	2449.18
890.699	2444.95
891.795	2440.43
892.89	2436.47
893.985	2432.74
895.08	2429.35
896.174	2426.21
897.268	2423.39
898.362	2420.97
899.456	2418.55
900.549	2416.04
901.642	2412.01
902.734	2412.16
903.827	2409.93
904.919	2407.39
906.011	2412.85
907.102	2419.6
908.193	2427.1
909.284	2434.72
910.375	2442.18
911.465	2449.41
912.555	2455.32
913.645	2460.81
914.734	2463.35
915.824	2462.24
916.913	2457.73
918.001	2449.84
919.09	2438.18
920.177	2422.74
921.266	2403.63
922.353	2381.87
923.44	2363.01
924.527	2344.64
925.614	2327.17
926.7	2310.92
927.786	2297.35
928.873	2284.89
929.958	2278.79
931.043	2268.28
932.128	2259.13
933.213	2251.42
934.297	2245.35
935.381	2240.49
936.465	2236.94
937.549	2234.8
938.632	2233.21
939.715	2231.24
940.798	2223.43
941.881	2213.83
942.962	2208.04
944.044	2201.9
945.125	2194.55
946.207	2188.93
947.288	2187.17
948.368	2186.96
949.449	2187.15
950.529	2187.58
951.61	2188.8
952.689	2187.6
953.769	2180.47
954.847	2173.02
955.926	2166.34
957.004	2163.58
958.082	2161.38
959.16	2158.22
960.238	2154.59
961.316	2150.45
962.392	2145.94
963.469	2141.16
964.546	2136.05
965.622	2130.88
966.698	2125.26
967.774	2119.27
968.849	2113.95
969.924	2112.36
970.998	2112.41
972.073	2114.85
973.148	2119.11
974.221	2124.15
975.295	2130.21
976.369	2140.1
977.441	2151.71
978.514	2162.76
979.587	2173.16
980.659	2182.76
981.731	2192.06
982.802	2202.05
983.874	2209.54
984.945	2215.12
986.016	2217.92
987.087	2218.05
988.157	2215.62
989.227	2211.92
990.296	2207.15
991.366	2201.78
992.435	2196.23
993.504	2190.55
994.573	2185.13
995.641	2179.61
996.709	2174.85
997.777	2172.15
998.844	2170.91
999.911	2169.09
1000.98	2165.33
1002.05	2159.02
1003.11	2151
1004.18	2145.23
1005.24	2133.89
1006.31	2120.23
1007.37	2100.81
1008.44	2080.73
1009.5	2061.24
1010.57	2049.44
1011.63	2033.78
1012.7	2018.83
1013.76	2005.11
1014.82	1988.63
1015.89	1972.48
1016.95	1961.48
1018.01	1957.84
1019.07	1955.04
1020.13	1948.76
1021.2	1945.54
1022.26	1940.99
1023.32	1937.25
1024.38	1931.75
1025.44	1929.05
1026.5	1922.9
1027.56	1917.03
1028.62	1915.27
1029.68	1909.98
1030.74	1905.02
1031.8	1896.82
1032.85	1890.8
1033.91	1880.11
1034.97	1872.43
1036.03	1872.67
1037.09	1873.95
1038.14	1880.07
1039.2	1883.21
1040.26	1890.04
1041.31	1894.07
1042.37	1896.28
1043.42	1898.34
1044.48	1900.98
1045.53	1900.74
1046.59	1898.33
1047.64	1893.86
1048.7	1886.15
1049.75	1880.69
1050.81	1871.26
1051.86	1861.49
1052.91	1855.36
1053.97	1849.22
1055.02	1843.01
1056.07	1837.5
1057.12	1834.51
1058.17	1829.74
1059.23	1825.18
1060.28	1820.67
1061.33	1816.57
1062.38	1815.95
1063.43	1816.27
1064.48	1816.72
1065.53	1817.82
1066.58	1818.37
1067.63	1818.28
1068.68	1816.28
1069.72	1812.41
1070.77	1808.02
1071.82	1799.24
1072.87	1791.94
1073.92	1786.85
1074.96	1783.37
1076.01	1779.31
1077.06	1776.4
1078.1	1771.35
1079.15	1764.86
1080.2	1757.81
1081.24	1751.61
1082.29	1745.75
1083.33	1740.22
1084.38	1736.18
1085.42	1731.05
1086.47	1726.4
1087.51	1722.2
1088.55	1718.47
1089.6	1714.94
1090.64	1711.04
1091.68	1707.51
1092.73	1705.87
1093.77	1706.11
1094.81	1703.92
1095.85	1701.58
1096.89	1701.12
1097.93	1701.43
1098.98	1703.32
1100.02	1706.16
1101.06	1709.87
1102.1	1713.08
1103.14	1714.87
1104.18	1712.99
1105.21	1711.29
1106.25	1710.07
1107.29	1709.15
1108.33	1708.41
1109.37	1707.56
1110.41	1708.47
1111.44	1713.21
1112.48	1712.17
1113.52	1707.84
1114.56	1700.35
1115.59	1691.74
1116.63	1682.15
1117.66	1674.23
1118.7	1667.62
1119.73	1661.88
1120.77	1657
1121.8	1652.87
1122.84	1647.08
1123.87	1641.45
1124.91	1638.75
1125.94	1638.19
1126.97	1640.6
1128.01	1644.95
1129.04	1648.35
1130.07	1652.49
1131.11	1656.05
1132.14	1658.56
1133.17	1656.23
1134.2	1662.73
1135.23	1672.31
1136.26	1685.16
1137.29	1700.12
1138.32	1718.78
1139.35	1752.86
1140.38	1771.12
1141.41	1779.69
1142.44	1789.16
1143.47	1792.37
1144.5	1787.7
1145.53	1790.16
1146.56	1789.48
1147.58	1773.06
1148.61	1791.29
1149.64	1823.29
1150.67	1813.69
1151.69	1856.83
1152.72	1886.59
1153.75	1902.25
1154.77	1915.03
1155.8	1918.25
1156.82	1917.84
1157.85	1916.03
1158.87	1892.93
1159.9	1855.57
1160.92	1814.47
1161.95	1762.29
1162.97	1710.72
1163.99	1670.73
1165.02	1644.49
1166.04	1635.15
1167.06	1619.98
1168.08	1602.95
1169.11	1589.98
1170.13	1602.46
1171.15	1603.47
1172.17	1604.79
1173.19	1610.08
1174.21	1612.96
1175.23	1622.79
1176.25	1630.83
1177.27	1641.05
1178.29	1652.97
1179.31	1666.29
1180.33	1677.16
1181.35	1686.54
1182.37	1693.69
1183.39	1698.12
1184.4	1698.52
1185.42	1699.26
1186.44	1704
1187.46	1696.56
1188.47	1684.71
1189.49	1669.43
1190.51	1653.35
1191.52	1633.15
1192.54	1613.66
1193.55	1591.28
1194.57	1570.28
1195.58	1550.51
1196.6	1534.34
1197.61	1520.38
1198.63	1506.8
1199.64	1502.36
1200.65	1503.55
1201.67	1500.75
1202.68	1498.09
1203.69	1495.75
1204.7	1495.62
1205.72	1498.03
1206.73	1499.21
1207.74	1501.24
1208.75	1504.26
1209.76	1506.89
1210.77	1511.32
1211.78	1515.26
1212.79	1518.73
1213.8	1522.72
1214.81	1526.13
1215.82	1528.13
1216.83	1529.89
1217.84	1531.49
1218.85	1532.78
1219.86	1533.84
1220.87	1534.55
1221.87	1535.01
1222.88	1535.17
1223.89	1531.36
1224.9	1528.52
1225.9	1522.76
1226.91	1514.31
1227.92	1505.27
1228.92	1495.98
1229.93	1485.32
1230.93	1473.5
1231.94	1458.92
1232.94	1445.2
1233.95	1430.27
1234.95	1414.57
1235.95	1400.25
1236.96	1388.1
1237.96	1376.62
1238.96	1367.82
1239.97	1359.21
1240.97	1352.05
1241.97	1345.87
1242.97	1340.92
1243.98	1337.21
1244.98	1334.81
1245.98	1330.97
1246.98	1327.96
1247.98	1326.99
1248.98	1327.13
1249.98	1326.74
1250.98	1325.56
1251.98	1324.55
1252.98	1321.12
1253.98	1318.61
1254.98	1318.76
1255.98	1320.44
1256.97	1320.69
1257.97	1319.94
1258.97	1319.92
1259.97	1319.05
1260.97	1319.95
1261.96	1320.34
1262.96	1320.08
1263.95	1319.35
1264.95	1317.9
1265.95	1314.72
1266.94	1311.56
1267.94	1306.57
1268.93	1300.38
1269.93	1293.31
1270.92	1286.26
1271.92	1280.74
1272.91	1274.81
1273.9	1270.13
1274.9	1265.87
1275.89	1264.13
1276.88	1264.79
1277.87	1265.64
1278.87	1269.12
1279.86	1274.08
1280.85	1280.4
1281.84	1286.88
1282.83	1294.37
1283.82	1300.01
1284.81	1303.39
1285.81	1305.05
1286.8	1304.23
1287.79	1300.06
1288.77	1293.82
1289.76	1287.27
1290.75	1278.72
1291.74	1270.35
1292.73	1259.71
1293.72	1249.48
1294.71	1239.54
1295.69	1231.89
1296.68	1226.43
1297.67	1220.34
1298.65	1217.41
1299.64	1216.07
1300.63	1215.11
1301.61	1216.69
1302.6	1217.47
1303.58	1221.62
1304.57	1222.88
1305.55	1220.11
1306.54	1217.31
1307.52	1213.06
1308.51	1210.37
1309.49	1206.4
1310.48	1202.55
1311.46	1197.48
1312.44	1192.66
1313.42	1189.51
1314.41	1188.78
1315.39	1189.31
1316.37	1196.15
1317.35	1201.4
1318.33	1208.23
1319.32	1219.52
1320.3	1233.02
1321.28	1250.09
1322.26	1270.12
1323.24	1301.83
1324.22	1335.54
1325.2	1388.88
1326.18	1404.32
1327.15	1378.22
1328.13	1347.06
1329.11	1321.22
1330.09	1291.42
1331.07	1264.81
1332.05	1241.52
1333.02	1220.97
1334	1202.37
1334.98	1185.91
1335.95	1171.28
1336.93	1158.71
1337.91	1149.5
1338.88	1141.47
1339.86	1135.99
1340.83	1131.4
1341.81	1128.74
1342.78	1125.82
1343.76	1125.34
1344.73	1125.71
1345.7	1125.96
1346.68	1127.52
1347.65	1128.49
1348.62	1128.57
1349.6	1128.2
1350.57	1128.31
1351.54	1124.7
1352.51	1121.15
1353.49	1117.76
1354.46	1115
1355.43	1112.16
1356.4	1108.95
1357.37	1104.71
1358.34	1098.18
1359.31	1092.61
1360.28	1085.25
1361.25	1078.07
1362.22	1069.95
1363.19	1062.69
1364.16	1051.46
1365.12	1043.56
1366.09	1038.86
1367.06	1034.82
1368.03	1032.25
1369	1031.27
1369.96	1031.52
1370.93	1033.1
1371.9	1036.3
1372.86	1039.29
1373.83	1043.68
1374.79	1048.04
1375.76	1053.18
1376.73	1054.91
1377.69	1054.06
1378.66	1054.25
1379.62	1053.2
1380.58	1050.56
1381.55	1046.51
1382.51	1041.86
1383.48	1039.11
1384.44	1035.19
1385.4	1032.13
1386.36	1030.61
1387.33	1029.7
1388.29	1029.26
1389.25	1028.6
1390.21	1028.67
1391.17	1027.53
1392.13	1026.14
1393.09	1024.33
1394.06	1021.64
1395.01	1017.96
1395.97	1013.9
1396.93	1010.08
1397.89	1006.47
1398.85	1001.62
1399.81	996.71
1400.77	990.887
1401.73	985.282
1402.69	979.329
1403.64	974.032
1404.6	971.346
1405.56	969.255
1406.52	968.285
1407.47	968.112
1408.43	968.12
1409.39	967.69
1410.34	967.555
1411.3	967.264
1412.25	967.341
1413.21	966.465
1414.16	965.918
1415.12	965.334
1416.07	964.258
1417.03	961.731
1417.98	959.171
1418.93	956.499
1419.89	954.264
1420.84	953.095
1421.79	952.723
1422.74	953.347
1423.7	954.951
1424.65	957.145
1425.6	960.002
1426.55	962.754
1427.5	966.104
1428.45	969.024
1429.4	971.459
1430.35	974.86
1431.3	977.931
1432.25	978.811
1433.2	980.744
1434.15	983.424
1435.1	985.678
1436.05	987.506
1437	989.208
1437.95	990.487
1438.89	989.806
1439.84	990.233
1440.79	989.577
1441.74	986.606
1442.68	983.497
1443.63	980.616
1444.58	976.959
1445.52	971.846
1446.47	964.773
1447.41	958.318
1448.36	951.116
1449.3	945.278
1450.25	939.501
1451.19	934.274
1452.14	930.583
1453.08	926.236
1454.03	922.689
1454.97	920.39
1455.91	918.562
1456.85	916.759
1457.8	914.547
1458.74	912.75
1459.68	911.566
1460.62	909.171
1461.57	908.544
1462.51	906.033
1463.45	903.617
1464.39	900.22
1465.33	900.125
1466.27	896.292
1467.21	890.068
1468.15	884.354
1469.09	878.941
1470.03	873.681
1470.97	868.445
1471.9	864.817
1472.84	861.917
1473.78	860.764
1474.72	861.018
1475.66	861.165
1476.59	862.172
1477.53	863.878
1478.47	866.263
1479.4	869.403
1480.34	872.47
1481.28	874.786
1482.21	877.902
1483.15	880.604
1484.08	882.945
1485.02	885.25
1485.95	887.458
1486.89	889.238
1487.82	889.779
1488.76	888.847
1489.69	887.642
1490.62	886.451
1491.56	884.112
1492.49	881.703
1493.42	880.192
1494.35	876.036
1495.29	871.503
1496.22	867.63
1497.15	864.568
1498.08	862.349
1499.01	861.241
1499.94	860.826
1500.87	861.204
1501.8	860.588
1502.73	859.545
1503.66	858.179
1504.59	858.526
1505.52	860.074
1506.45	862.701
1507.38	868.012
1508.31	875.471
1509.23	884.455
1510.16	894.416
1511.09	904.732
1512.02	916.483
1512.94	925.871
1513.87	944.209
1514.8	964.866
1515.72	988.3
1516.65	1015.56
1517.58	1045.77
1518.5	1073.06
1519.43	1099.64
1520.35	1127.08
1521.28	1153.74
1522.2	1179.04
1523.12	1200.53
1524.05	1211.46
1524.97	1216.36
1525.9	1208.5
1526.82	1201.41
1527.74	1191.21
1528.66	1178.46
1529.59	1164.61
1530.51	1147.34
1531.43	1129.15
1532.35	1108.3
1533.27	1087.12
1534.19	1065.82
1535.11	1048.38
1536.04	1030.6
1536.96	1015.03
1537.88	999.024
1538.8	972
1539.71	947.16
1540.63	921.372
1541.55	898.189
1542.47	874.077
1543.39	864.902
1544.31	859.433
1545.23	857.082
1546.14	858.556
1547.06	868.298
1547.98	870.149
1548.89	872.128
1549.81	868.205
1550.73	864.463
1551.64	858.753
1552.56	852.099
1553.47	845.404
1554.39	837.241
1555.31	828.623
1556.22	819.708
1557.13	810.97
1558.05	802.196
1558.96	793.173
1559.88	784.441
1560.79	776.315
1561.7	769.107
1562.62	761.757
1563.53	755.547
1564.44	749.255
1565.35	743.385
1566.27	738.863
1567.18	735.447
1568.09	732.311
1569	730.333
1569.91	726.592
1570.82	724.983
1571.73	723.328
1572.64	721.724
1573.55	720.352
1574.46	719.478
1575.37	718.749
1576.28	718.011
1577.19	716.68
1578.1	715.981
1579	715.568
1579.91	715.245
1580.82	714.917
1581.73	714.938
1582.63	715.187
1583.54	714.854
1584.45	715.141
1585.35	715.494
1586.26	716.098
1587.17	718.004
1588.07	718.652
1588.98	717.76
1589.88	717.002
1590.79	716.738
1591.69	717.213
1592.6	716.877
1593.5	716.573
1594.4	716.365
1595.31	716.647
1596.21	717.298
1597.11	718.661
1598.02	720.661
1598.92	722.184
1599.82	723.865
1600.72	726.281
1601.63	728.795
1602.53	731.147
1603.43	734.457
1604.33	737.455
1605.23	737.898
1606.13	737.143
1607.03	735.65
1607.93	733.826
1608.83	732.597
1609.73	731.211
1610.63	728.8
1611.53	725.643
1612.43	723.448
1613.32	720.921
1614.22	719.378
1615.12	719.59
1616.02	718.69
1616.92	717.283
1617.81	715.314
1618.71	713.633
1619.61	712.439
1620.5	711.202
1621.4	709.89
1622.29	708.435
1623.19	705.647
1624.08	701.828
1624.98	697.626
1625.87	693.93
1626.77	692.313
1627.66	691.569
1628.56	690.498
1629.45	689.832
1630.34	688.792
1631.24	687.911
1632.13	686.906
1632.84	685.315
1633.77	684.057
1634.7	681.887
1635.63	681.315
1636.56	680.571
1637.49	680.862
1638.42	681.696
1639.34	682.979
1640.27	683.738
1641.2	683.605
1642.13	683.849
1643.05	684.349
1643.98	684.019
1644.91	683.152
1645.83	681.343
1646.76	679.735
1647.68	679.678
1648.61	678.627
1649.54	677.899
1650.46	676.606
1651.39	675.889
1652.31	676.1
1653.23	676.488
1654.16	676.973
1655.08	677.658
1656.01	679.019
1656.93	680.454
1657.85	679.865
1658.78	679.44
1659.7	679.202
1660.62	678.451
1661.54	676.879
1662.47	674.2
1663.39	671.269
1664.31	668.608
1665.23	666.053
1666.15	663.219
1667.07	659.987
1667.99	656.304
1668.92	653.282
1669.84	651.124
1670.76	648.895
1671.68	645.618
1672.6	643.246
1673.52	641.225
1674.43	639.999
1675.35	638.575
1676.27	637.24
1677.19	636.37
1678.11	635.835
1679.03	636.467
1679.95	636.773
1680.86	636.752
1681.78	636.183
1682.7	635.919
1683.61	635.418
1684.53	634.606
1685.45	633.525
1686.36	631.713
1687.28	630.06
1688.2	628.127
1689.11	627.401
1690.03	625.988
1690.94	624.345
1691.86	623.218
1692.77	621.422
1693.69	619.269
1694.6	617.827
1695.52	617.439
1696.43	616.222
1697.34	614.549
1698.26	612.288
1699.17	610.179
1700.08	606.319
1700.99	602.595
1701.91	599.22
1702.82	595.476
1703.73	591.85
1704.64	587.486
1705.55	583.778
1706.47	580.616
1707.38	579.054
1708.29	577.285
1709.2	576.306
1710.11	576.043
1711.02	576.033
1711.93	577.054
1712.84	579.152
1713.75	581.273
1714.66	583.165
1715.57	584.207
1716.48	585.351
1717.39	585.898
1718.29	585.556
1719.2	585.219
1720.11	583.847
1721.02	582.377
1721.93	580.204
1722.83	578.05
1723.74	576.029
1724.65	574.904
1725.55	574.856
1726.46	573.775
1727.37	571.345
1728.27	570.731
1729.18	570.235
1730.08	569.579
1730.99	568.515
1731.89	565.89
1732.8	561.588
1733.7	558.478
1734.61	555.321
1735.51	552.133
1736.42	550.727
1737.32	549.532
1738.22	548.849
1739.13	551.215
1740.03	551.884
1740.93	552.779
1741.83	553.907
1742.74	554.789
1743.64	555.657
1744.54	555.736
1745.44	553.273
1746.34	553.268
1747.24	553.406
1748.15	553.827
1749.05	552.61
1749.95	552.85
1750.85	554.283
1751.75	554.102
1752.65	554.073
1753.55	553.028
1754.45	552.996
1755.35	552.362
1756.25	551.567
1757.14	551.427
1758.04	552.028
1758.94	553.66
1759.84	553.509
1760.74	551.404
1761.63	547.776
1762.53	543.742
1763.43	539.852
1764.33	537.527
1765.22	535.652
1766.12	534.499
1767.02	533.046
1767.91	532.195
1768.81	530.046
1769.7	528.43
1770.6	526.77
1771.49	525.422
1772.39	524.571
1773.28	523.997
1774.18	525.41
1775.07	524.434
1775.97	524.902
1776.86	522.566
1777.75	517.574
1778.65	513.093
1779.54	510.56
1780.43	509.353
1781.33	508.963
1782.22	517.055
1783.11	519.501
1784	521.23
1784.89	510.971
1785.79	510.31
1786.68	507.961
1787.57	509.186
1788.46	507.675
1789.35	506.564
1790.24	506.476
1791.13	504.854
1792.02	502.77
1792.91	500.6
1793.8	498.345
1794.69	496.004
1795.58	493.577
1796.47	490.818
1797.36	488.438
1798.25	486.207
1799.13	486.807
