Acq. time (s)=	15
Accumulations=	2
Range (cm-¹)=	600...1800
Windows=	2
Autofocus=	Off
AutoExposure=	On
Spike filter=	Multiple accum.
Delay time (s)=	1
Binning=	1
Readout mode=	Signal
DeNoise=	Standard
ICS correction=	Off
Dark correction=	Off
Inst. Process=	Off
Instrument=	XploRA
Detector=	Syncerity
Objective=	x20LWD
Grating=	1200 gr/mm
Filter=	25%
Laser (nm)=	785 
Slit (µm)=	100 
Hole (µm)=	300 
Laser pol=	None
Raman pol=	None
Output=	Camera
StageXY=	Marzhauser
StageZ=	
X (µm)=	5416.8
Y (µm)=	2959.4
Project=	
Sample=	
Site=	
Title=	To11-T
Remark=	
Date=	15.10.2022 18:10
Acquired=	15.10.2022 18:10:45
600.787	559.67
601.956	566.735
603.126	575.041
604.294	583.474
605.463	590.454
606.631	598.411
607.8	607.088
608.967	615.225
610.135	623.658
611.302	632.025
612.468	640.801
613.635	648.338
614.802	655.452
615.968	661.869
617.133	668.817
618.299	675.097
619.464	681.071
620.629	686.836
621.793	691.812
622.958	695.643
624.121	700.192
625.285	704.742
626.448	708.58
627.612	711.189
628.774	713.174
629.937	715.275
631.099	717.356
632.261	719.87
633.423	722.604
634.584	725.076
635.745	727.509
636.906	728.998
638.066	731.216
639.227	732.288
640.386	733.662
641.546	733.585
642.705	735.022
643.864	735.844
645.023	735.602
646.181	735.049
647.339	734.366
648.497	733.926
649.655	733.454
650.812	732.272
651.969	731.824
653.125	732.281
654.282	733.788
655.438	734.631
656.593	736.363
657.75	738.528
658.905	740.966
660.059	743.35
661.214	745.982
662.368	750.58
663.522	754.911
664.676	759.896
665.83	764.475
666.983	769.549
668.136	774.138
669.288	777.543
670.441	779.281
671.592	781.391
672.744	782.727
673.895	785.579
675.046	787.789
676.197	785.155
677.348	780.561
678.498	773.732
679.648	765.959
680.798	758.663
681.947	756.279
683.096	755.838
684.245	757.94
685.394	769.655
686.542	774.496
687.69	778.376
688.837	780.916
689.984	779.539
691.132	775.075
692.278	773.029
693.425	773.249
694.571	773.556
695.717	774.283
696.863	776.251
698.008	776.85
699.152	776.492
700.298	776.034
701.442	774.935
702.586	772.869
703.73	770.113
704.873	767.125
706.017	763.943
707.16	762.064
708.302	759.295
709.445	756.233
710.586	753.025
711.729	749.778
712.87	746.223
714.012	743.656
715.152	742.294
716.293	742.408
717.433	742.403
718.573	742.031
719.713	742.43
720.853	743.819
721.991	744.292
723.131	744.361
724.269	743.932
725.408	743.76
726.545	743.345
727.683	743.008
728.821	742.284
729.958	741.542
731.095	738.72
732.231	737.979
733.368	736.391
734.503	738.018
735.639	739.674
736.775	743.904
737.91	748.883
739.045	754.948
740.179	757.536
741.313	759.111
742.447	760.126
743.581	760.625
744.714	760.239
745.847	758.589
746.98	752.663
748.113	748.402
749.245	745.036
750.377	745.667
751.509	742.707
752.64	739.163
753.771	735.928
754.902	732.421
756.033	729.932
757.163	725.9
758.293	722.553
759.423	718.718
760.551	714.839
761.681	710.296
762.81	705.773
763.938	702.565
765.066	699.883
766.194	697.351
767.321	695.991
768.449	694.633
769.576	693.095
770.703	691.843
771.83	690.639
772.955	689.121
774.081	688.345
775.207	688.62
776.332	689.178
777.457	690.156
778.582	690.825
779.707	690.317
780.831	689.48
781.954	687.187
783.078	684.77
784.201	681.734
785.324	679.494
786.447	676.256
787.569	673.343
788.691	669.72
789.813	666.104
790.935	662.299
792.056	658.06
793.177	653.916
794.297	649.692
795.418	645.808
796.539	643.315
797.658	641.696
798.777	640.102
799.897	638.425
801.016	636.792
802.134	635.742
803.253	634.528
804.371	633.25
805.489	632.302
806.606	631.541
807.723	630.546
808.84	628.897
809.957	628.395
811.073	628.615
812.19	628.124
813.305	627.751
814.421	626.94
815.536	625.69
816.651	623.895
817.766	622.233
818.88	620.017
819.994	617.528
821.108	615.113
822.221	614.132
823.335	613.853
824.448	614.235
825.56	614.634
826.673	615.193
827.784	615.871
828.897	616.978
830.008	617.936
831.119	619.895
832.23	621.935
833.341	623.351
834.451	625.225
835.561	626.651
836.671	625.976
837.78	624.783
838.89	622.94
839.998	621.707
841.108	620.684
842.216	619.769
843.324	618.351
844.431	617.18
845.539	615.688
846.646	614.045
847.753	613.401
848.859	611.124
849.966	608.198
851.071	605.865
852.178	603.483
853.283	601.098
854.388	598.644
855.494	596.732
856.598	594.427
857.703	590.251
858.806	586.378
859.91	584.098
861.014	583.128
862.116	582.608
863.22	582.648
864.322	582.942
865.425	584.59
866.527	585.522
867.628	585.679
868.73	585.618
869.831	585.809
870.932	585.26
872.032	584.226
873.133	582.537
874.233	575.603
875.333	574.033
876.432	572.734
877.532	572.344
878.631	571.964
879.729	571.853
880.828	570.892
881.926	570.188
883.023	569.525
884.121	568.335
885.218	566.055
886.315	564.32
887.412	561.669
888.508	559.696
889.604	557.918
890.699	557.627
891.795	557.272
892.89	554.993
893.985	553.473
895.08	552.551
896.174	551.202
897.268	550.536
898.362	549.701
899.456	549.018
900.549	548.178
901.642	548.066
902.734	546.959
903.827	546.566
904.919	546.931
906.011	547.851
907.102	548.66
908.193	549.572
909.284	551.437
910.375	554.117
911.465	556.326
912.555	557.937
913.645	560.181
914.734	562.746
915.824	566.551
916.913	567.525
918.001	568.139
919.09	566.378
920.177	564.473
921.266	561.806
922.353	557.71
923.44	553.796
924.527	549.379
925.614	543.571
926.7	538.332
927.786	532.813
928.873	526.971
929.958	521.376
931.043	516.246
932.128	512.04
933.213	511.233
934.297	509.872
935.381	508.058
936.465	506.537
937.549	505.154
938.632	505.187
939.715	505.48
940.798	506.143
941.881	506.51
942.962	506.493
944.044	507.144
945.125	507.671
946.207	508.788
947.288	509.342
948.368	508.45
949.449	508.025
950.529	506.383
951.61	503.885
952.689	501.653
953.769	499.461
954.847	496.608
955.926	493.396
957.004	491.793
958.082	491.881
959.16	491.436
960.238	490.96
961.316	490.553
962.392	490.264
963.469	490.612
964.546	491.361
965.622	492.371
966.698	494.497
967.774	495.565
968.849	496.553
969.924	497.606
970.998	498.844
972.073	496.984
973.148	497.233
974.221	497.11
975.295	497.015
976.369	497.003
977.441	497.858
978.514	498.029
979.587	498.182
980.659	498.31
981.731	498.259
982.802	499.043
983.874	499.503
984.945	500.018
986.016	500.43
987.087	500.775
988.157	502.019
989.227	502.895
990.296	501.882
991.366	501.328
992.435	500.038
993.504	500.745
994.573	501.356
995.641	501.72
996.709	502.208
997.777	502.963
998.844	503.471
999.911	502.914
1000.98	503.081
1002.05	503.553
1003.11	504.023
1004.18	502.664
1005.24	500.741
1006.31	498.504
1007.37	495.461
1008.44	491.445
1009.5	487.197
1010.57	482.222
1011.63	476.382
1012.7	471.193
1013.76	466.161
1014.82	462.005
1015.89	457.5
1016.95	453.472
1018.01	452.209
1019.07	450.06
1020.13	447.911
1021.2	445.876
1022.26	443.693
1023.32	441.884
1024.38	439.997
1025.44	435.776
1026.5	433.596
1027.56	432.011
1028.62	430.692
1029.68	429.599
1030.74	428.085
1031.8	426.5
1032.85	425.466
1033.91	426.812
1034.97	427.735
1036.03	428.297
1037.09	428.633
1038.14	428.996
1039.2	428.998
1040.26	428.931
1041.31	428.93
1042.37	429.382
1043.42	431.266
1044.48	432.412
1045.53	433.985
1046.59	434.286
1047.64	434.804
1048.7	434.704
1049.75	434.404
1050.81	433.467
1051.86	432.478
1052.91	430.64
1053.97	428.463
1055.02	426.727
1056.07	424.812
1057.12	422.39
1058.17	420.463
1059.23	419.234
1060.28	418.224
1061.33	417.121
1062.38	417.112
1063.43	417.545
1064.48	417.631
1065.53	416.062
1066.58	414.536
1067.63	413.262
1068.68	412.735
1069.72	411.846
1070.77	410.784
1071.82	409.655
1072.87	409.055
1073.92	407.792
1074.96	406.684
1076.01	405.936
1077.06	405.84
1078.1	406.2
1079.15	407.126
1080.2	405.107
1081.24	404.038
1082.29	404.104
1083.33	404.788
1084.38	405.596
1085.42	406.971
1086.47	408.24
1087.51	409.332
1088.55	409.282
1089.6	408.82
1090.64	407.515
1091.68	405.112
1092.73	403.197
1093.77	400.695
1094.81	397.612
1095.85	394.838
1096.89	393.028
1097.93	392.182
1098.98	391.863
1100.02	392.614
1101.06	391.9
1102.1	391.734
1103.14	391.57
1104.18	391.036
1105.21	390.42
1106.25	390.049
1107.29	389.604
1108.33	389.965
1109.37	390.643
1110.41	391.029
1111.44	391.094
1112.48	391.021
1113.52	390.775
1114.56	390.362
1115.59	390.273
1116.63	390.913
1117.66	391.011
1118.7	389.909
1119.73	388.652
1120.77	386.492
1121.8	384.412
1122.84	382.391
1123.87	380.787
1124.91	379.584
1125.94	378.75
1126.97	377.654
1128.01	377.467
1129.04	378.342
1130.07	379.23
1131.11	380.408
1132.14	382.194
1133.17	383.84
1134.2	385.837
1135.23	388.11
1136.26	390.465
1137.29	393.575
1138.32	396.816
1139.35	398.822
1140.38	400.758
1141.41	403.495
1142.44	403.852
1143.47	401.136
1144.5	401.879
1145.53	404.956
1146.56	407.679
1147.58	411.565
1148.61	415.869
1149.64	418.735
1150.67	420.82
1151.69	422.357
1152.72	428.038
1153.75	434.39
1154.77	442.348
1155.8	447.096
1156.82	444.058
1157.85	444.065
1158.87	441.182
1159.9	435.313
1160.92	424.034
1161.95	413.404
1162.97	403.506
1163.99	393.669
1165.02	384.842
1166.04	378.453
1167.06	373.192
1168.08	367.61
1169.11	365.992
1170.13	367.007
1171.15	368.401
1172.17	368.874
1173.19	367.88
1174.21	368.189
1175.23	368.147
1176.25	369.488
1177.27	371.485
1178.29	374.016
1179.31	377.283
1180.33	380.535
1181.35	382.937
1182.37	383.946
1183.39	385.852
1184.4	386.109
1185.42	386.258
1186.44	385.26
1187.46	383.43
1188.47	382.153
1189.49	378.975
1190.51	375.892
1191.52	371.279
1192.54	366.957
1193.55	362.512
1194.57	358.515
1195.58	353.371
1196.6	348.928
1197.61	344.221
1198.63	342.212
1199.64	341.405
1200.65	341.652
1201.67	343.442
1202.68	345.381
1203.69	348.967
1204.7	350.861
1205.72	350.994
1206.73	351.164
1207.74	351.645
1208.75	352.455
1209.76	353.703
1210.77	355.198
1211.78	355.543
1212.79	354.415
1213.8	353.327
1214.81	351.997
1215.82	349.876
1216.83	348.748
1217.84	347.565
1218.85	346.929
1219.86	345.881
1220.87	346.162
1221.87	347.722
1222.88	349.222
1223.89	350.337
1224.9	351.671
1225.9	352.183
1226.91	352.796
1227.92	351.608
1228.92	349.481
1229.93	346.834
1230.93	345.716
1231.94	342.726
1232.94	337.438
1233.95	332.796
1234.95	329.609
1235.95	326.283
1236.96	323.27
1237.96	319.949
1238.96	318.98
1239.97	317.481
1240.97	315.298
1241.97	312.953
1242.97	310.756
1243.98	309.182
1244.98	307.78
1245.98	306.658
1246.98	305.777
1247.98	305.145
1248.98	304.417
1249.98	303.832
1250.98	303.307
1251.98	302.377
1252.98	301.763
1253.98	301.286
1254.98	301.123
1255.98	301.365
1256.97	301.616
1257.97	302.111
1258.97	302.492
1259.97	302.742
1260.97	302.938
1261.96	303.018
1262.96	302.58
1263.95	302.14
1264.95	301.614
1265.95	300.972
1266.94	300.234
1267.94	299.333
1268.93	298.445
1269.93	297.623
1270.92	296.805
1271.92	296.198
1272.91	295.88
1273.9	296.071
1274.9	296.355
1275.89	297.043
1276.88	297.908
1277.87	298.819
1278.87	299.733
1279.86	300.662
1280.85	301.486
1281.84	301.227
1282.83	300.967
1283.82	300.525
1284.81	300.107
1285.81	300.206
1286.8	301.051
1287.79	301.736
1288.77	302.316
1289.76	302.448
1290.75	301.919
1291.74	299.504
1292.73	297.19
1293.72	294.866
1294.71	292.254
1295.69	289.931
1296.68	288.13
1297.67	286.758
1298.65	285.473
1299.64	284.442
1300.63	283.557
1301.61	283.902
1302.6	284.452
1303.58	283.6
1304.57	282.715
1305.55	281.956
1306.54	281.247
1307.52	280.677
1308.51	280.183
1309.49	279.818
1310.48	279.588
1311.46	279.311
1312.44	279.217
1313.42	279.381
1314.41	279.177
1315.39	277.714
1316.37	277.343
1317.35	276.94
1318.33	278.064
1319.32	279.876
1320.3	282.887
1321.28	286.692
1322.26	290.444
1323.24	293.268
1324.22	297.594
1325.2	302.848
1326.18	307.561
1327.15	309.207
1328.13	309.819
1329.11	309.011
1330.09	305.787
1331.07	302.147
1332.05	297.841
1333.02	291.264
1334	285.103
1334.98	280.364
1335.95	277.277
1336.93	273.772
1337.91	271.405
1338.88	270.314
1339.86	268.828
1340.83	267.572
1341.81	266.849
1342.78	266.495
1343.76	266.41
1344.73	266.014
1345.7	266.291
1346.68	266.319
1347.65	266.19
1348.62	265.926
1349.6	265.272
1350.57	265.237
1351.54	263.725
1352.51	261.924
1353.49	259.461
1354.46	256.871
1355.43	254.404
1356.4	252.2
1357.37	250.681
1358.34	249.348
1359.31	248.245
1360.28	247.37
1361.25	247.009
1362.22	246.741
1363.19	244.14
1364.16	242.338
1365.12	241.101
1366.09	239.664
1367.06	238.415
1368.03	237.22
1369	236.933
1369.96	238.832
1370.93	239.901
1371.9	241.502
1372.86	243.699
1373.83	243.673
1374.79	243.418
1375.76	243.21
1376.73	242.82
1377.69	242.418
1378.66	242.051
1379.62	241.622
1380.58	241.245
1381.55	240.872
1382.51	240.621
1383.48	240.334
1384.44	240.081
1385.4	239.87
1386.36	239.746
1387.33	240.033
1388.29	240.498
1389.25	240.89
1390.21	241.354
1391.17	241.658
1392.13	241.533
1393.09	240.635
1394.06	239.529
1395.01	238.245
1395.97	236.869
1396.93	235.363
1397.89	233.853
1398.85	232.461
1399.81	231.017
1400.77	229.596
1401.73	228.205
1402.69	226.919
1403.64	225.49
1404.6	224.841
1405.56	224.7
1406.52	224.599
1407.47	224.439
1408.43	224.29
1409.39	223.953
1410.34	223.056
1411.3	222.273
1412.25	221.233
1413.21	219.678
1414.16	218.122
1415.12	216.638
1416.07	215.318
1417.03	214.606
1417.98	214.394
1418.93	214.296
1419.89	214.591
1420.84	215.213
1421.79	216.159
1422.74	217.257
1423.7	218.592
1424.65	220.053
1425.6	221.831
1426.55	223.5
1427.5	224.511
1428.45	226.386
1429.4	227.256
1430.35	227.603
1431.3	227.076
1432.25	226.015
1433.2	224.94
1434.15	224.01
1435.1	224.156
1436.05	224.779
1437	226.635
1437.95	228.59
1438.89	230.464
1439.84	231.869
1440.79	229.854
1441.74	228.188
1442.68	226.282
1443.63	225.17
1444.58	224.527
1445.52	223.893
1446.47	223.21
1447.41	223.56
1448.36	225.589
1449.3	223.168
1450.25	220.812
1451.19	218.955
1452.14	217.48
1453.08	216.713
1454.03	216.228
1454.97	215.697
1455.91	214.277
1456.85	214.468
1457.8	214.187
1458.74	213.507
1459.68	212.648
1460.62	211.669
1461.57	210.678
1462.51	209.72
1463.45	208.799
1464.39	207.709
1465.33	206.623
1466.27	205.577
1467.21	204.582
1468.15	203.746
1469.09	203.061
1470.03	202.747
1470.97	202.779
1471.9	202.901
1472.84	203.196
1473.78	203.667
1474.72	204.181
1475.66	204.688
1476.59	204.874
1477.53	204.434
1478.47	203.747
1479.4	202.975
1480.34	202.531
1481.28	202.075
1482.21	202.48
1483.15	202.884
1484.08	203.126
1485.02	203.99
1485.95	204.365
1486.89	204.487
1487.82	204.182
1488.76	203.736
1489.69	203.227
1490.62	202.749
1491.56	202.237
1492.49	201.752
1493.42	201.278
1494.35	200.922
1495.29	200.595
1496.22	200.376
1497.15	200.571
1498.08	199.724
1499.01	199.158
1499.94	198.625
1500.87	199.167
1501.8	199.327
1502.73	199.662
1503.66	200.682
1504.59	201.43
1505.52	202.482
1506.45	204.05
1507.38	204.3
1508.31	204.764
1509.23	205.405
1510.16	206.722
1511.09	208.414
1512.02	211.058
1512.94	214.042
1513.87	217.692
1514.8	222.24
1515.72	228.138
1516.65	232.583
1517.58	238.177
1518.5	244.247
1519.43	250.998
1520.35	257.263
1521.28	263.142
1522.2	269.04
1523.12	273.356
1524.05	276.152
1524.97	277.856
1525.9	278.823
1526.82	278.288
1527.74	277.439
1528.66	275.488
1529.59	272.402
1530.51	269.003
1531.43	265.026
1532.35	260.065
1533.27	255.173
1534.19	250.545
1535.11	245.509
1536.04	239.386
1536.96	233.31
1537.88	227.133
1538.8	221.039
1539.71	215.555
1540.63	210.615
1541.55	206.567
1542.47	203.802
1543.39	201.8
1544.31	200.217
1545.23	198.977
1546.14	197.901
1547.06	196.611
1547.98	195.49
1548.89	194.773
1549.81	194.676
1550.73	194.313
1551.64	193.944
1552.56	193.648
1553.47	192.349
1554.39	191.112
1555.31	189.455
1556.22	187.599
1557.13	185.687
1558.05	183.692
1558.96	181.677
1559.88	179.749
1560.79	177.856
1561.7	176.207
1562.62	174.617
1563.53	173.192
1564.44	171.961
1565.35	170.893
1566.27	169.946
1567.18	168.851
1568.09	167.221
1569	166.165
1569.91	165.295
1570.82	164.518
1571.73	163.759
1572.64	163.59
1573.55	163.574
1574.46	163.841
1575.37	164.125
1576.28	164.43
1577.19	164.396
1578.1	164.262
1579	164.008
1579.91	163.672
1580.82	163.194
1581.73	162.7
1582.63	162.151
1583.54	161.481
1584.45	160.512
1585.35	159.146
1586.26	158.264
1587.17	157.604
1588.07	156.799
1588.98	156.14
1589.88	156.752
1590.79	157.597
1591.69	158.532
1592.6	158.529
1593.5	158.402
1594.4	158.504
1595.31	158.409
1596.21	158.84
1597.11	159.278
1598.02	159.973
1598.92	160.433
1599.82	160.861
1600.72	161.563
1601.63	162.086
1602.53	162.625
1603.43	163.212
1604.33	163.564
1605.23	163.75
1606.13	163.88
1607.03	164.033
1607.93	164.123
1608.83	164.062
1609.73	163.632
1610.63	163.14
1611.53	162.291
1612.43	161.015
1613.32	159.736
1614.22	158.464
1615.12	157.453
1616.02	156.751
1616.92	156.365
1617.81	156.224
1618.71	156.194
1619.61	156.174
1620.5	155.878
1621.4	155.454
1622.29	154.269
1623.19	152.838
1624.08	151.303
1624.98	149.858
1625.87	148.402
1626.77	147.299
1627.66	146.678
1628.56	146.325
1629.45	146.531
1630.34	146.899
1631.24	147.287
1632.13	147.352
1632.84	147.447
1633.77	147.683
1634.7	147.872
1635.63	148.007
1636.56	148.125
1637.49	148.399
1638.42	148.517
1639.34	149.178
1640.27	148.961
1641.2	148.604
1642.13	147.86
1643.05	145.619
1643.98	145.14
1644.91	145.265
1645.83	146.258
1646.76	146.627
1647.68	147.376
1648.61	147.592
1649.54	148.693
1650.46	149.269
1651.39	148.133
1652.31	147.106
1653.23	146.248
1654.16	145.451
1655.08	144.709
1656.01	144.151
1656.93	143.795
1657.85	143.617
1658.78	143.603
1659.7	143.542
1660.62	143.353
1661.54	142.433
1662.47	141.507
1663.39	140.96
1664.31	140.849
1665.23	141.314
1666.15	140.658
1667.07	139.861
1667.99	139.352
1668.92	138.721
1669.84	138.016
1670.76	137.903
1671.68	137.882
1672.6	138.257
1673.52	139.024
1674.43	140.156
1675.35	140.64
1676.27	141.713
1677.19	142.761
1678.11	143.06
1679.03	142.765
1679.95	142.17
1680.86	141.147
1681.78	139.96
1682.7	139.088
1683.61	137.469
1684.53	135.918
1685.45	134.373
1686.36	133.637
1687.28	133.171
1688.2	132.878
1689.11	132.71
1690.03	132.182
1690.94	132.221
1691.86	132.442
1692.77	132.454
1693.69	132.001
1694.6	131.602
1695.52	131.231
1696.43	130.316
1697.34	129.695
1698.26	128.532
1699.17	127.784
1700.08	127.1
1700.99	127.067
1701.91	127.12
1702.82	127.905
1703.73	128.297
1704.64	128.62
1705.55	128.844
1706.47	128.897
1707.38	129.141
1708.29	129.154
1709.2	129.105
1710.11	129.096
1711.02	129.008
1711.93	129.081
1712.84	129.172
1713.75	129.232
1714.66	128.515
1715.57	127.607
1716.48	126.016
1717.39	124.524
1718.29	122.944
1719.2	121.108
1720.11	118.556
1721.02	117.276
1721.93	116.478
1722.83	116.757
1723.74	117.103
1724.65	117.295
1725.55	117.793
1726.46	118.781
1727.37	120.127
1728.27	121.349
1729.18	122.647
1730.08	122.452
1730.99	121.6
1731.89	121.181
1732.8	121.163
1733.7	121.412
1734.61	122.056
1735.51	122.995
1736.42	123.78
1737.32	122.705
1738.22	121.78
1739.13	120.613
1740.03	119.179
1740.93	117.852
1741.83	116.509
1742.74	115.78
1743.64	115.138
1744.54	115.086
1745.44	115.614
1746.34	115.863
1747.24	117.196
1748.15	117.556
1749.05	117.764
1749.95	117.282
1750.85	117.158
1751.75	116.52
1752.65	116.353
1753.55	116.387
1754.45	117.325
1755.35	117.169
1756.25	116.878
1757.14	116.858
1758.04	116.802
1758.94	118.578
1759.84	118.73
1760.74	117.928
1761.63	117.348
1762.53	116.702
1763.43	116.278
1764.33	115.431
1765.22	114.572
1766.12	113.82
1767.02	113.508
1767.91	113.227
1768.81	112.89
1769.7	112.404
1770.6	112.139
1771.49	112.046
1772.39	111.479
1773.28	110.853
1774.18	110.689
1775.07	110.301
1775.97	109.939
1776.86	109.859
1777.75	109.95
1778.65	110.18
1779.54	109.631
1780.43	109.65
1781.33	110.098
1782.22	110.342
1783.11	110.644
1784	111.028
1784.89	111.442
1785.79	111.985
1786.68	112.159
1787.57	112.268
1788.46	111.619
1789.35	110.63
1790.24	109.478
1791.13	108.301
1792.02	107.014
1792.91	105.68
1793.8	106.383
1794.69	105.177
1795.58	103.791
1796.47	102.141
1797.36	100.309
1798.25	98.6286
1799.13	96.9602
