Acq. time (s)=	15
Accumulations=	2
Range (cm-¹)=	600...1800
Windows=	2
Autofocus=	Off
AutoExposure=	On
Spike filter=	Multiple accum.
Delay time (s)=	1
Binning=	1
Readout mode=	Signal
DeNoise=	Standard
ICS correction=	Off
Dark correction=	Off
Inst. Process=	Off
Instrument=	XploRA
Detector=	Syncerity
Objective=	x20LWD
Grating=	1200 gr/mm
Filter=	25%
Laser (nm)=	785 
Slit (µm)=	100 
Hole (µm)=	300 
Laser pol=	None
Raman pol=	None
Output=	Camera
StageXY=	Marzhauser
StageZ=	
X (µm)=	-7199.8
Y (µm)=	-3060.8
Project=	
Sample=	
Site=	
Title=	To9-T
Remark=	
Date=	14.10.2022 23:47
Acquired=	14.10.2022 23:47:51
600.787	761.029
601.956	775.121
603.126	784.936
604.294	793.573
605.463	804.019
606.631	813.609
607.8	822
608.967	828.974
610.135	834.861
611.302	840.009
612.468	844.623
613.635	848.68
614.802	852.118
615.968	855.272
617.133	858.495
618.299	861.669
619.464	864.751
620.629	867.919
621.793	871.252
622.958	874.801
624.121	878.717
625.285	882.759
626.448	886.742
627.612	890.639
628.774	894.383
629.937	897.788
631.099	900.131
632.261	902.439
633.423	904.544
634.584	906.408
635.745	908.111
636.906	909.545
638.066	910.925
639.227	912.689
640.386	912.475
641.546	911.609
642.705	909.248
643.864	905.443
645.023	901.001
646.181	896.864
647.339	893.636
648.497	891.006
649.655	892.797
650.812	892.055
651.969	891.569
653.125	891.523
654.282	892.434
655.438	894.352
656.593	897.029
657.75	900.817
658.905	905.376
660.059	907.55
661.214	909.066
662.368	910.422
663.522	911.293
664.676	911.874
665.83	912.525
666.983	913.287
668.136	914.232
669.288	915.437
670.441	916.979
671.592	918.501
672.744	920.569
673.895	922.622
675.046	924.731
676.197	926.808
677.348	928.892
678.498	929.722
679.648	929.918
680.798	929.864
681.947	929.787
683.096	929.664
684.245	930.234
685.394	930.297
686.542	930.39
687.69	930.198
688.837	930.138
689.984	930.341
691.132	930.534
692.278	930.835
693.425	930.86
694.571	929.742
695.717	928.336
696.863	926.575
698.008	924.527
699.152	923.318
700.298	922.887
701.442	922.899
702.586	922.804
703.73	922.527
704.873	919.63
706.017	915.817
707.16	912.299
708.302	910.126
709.445	908.538
710.586	907.328
711.729	908.097
712.87	909.47
714.012	907.607
715.152	905.186
716.293	902.547
717.433	900.123
718.573	898.433
719.713	898.299
720.853	898.047
721.991	898.529
723.131	897.465
724.269	895.909
725.408	894.632
726.545	894.505
727.683	894.798
728.821	895.686
729.958	897.304
731.095	899.553
732.231	902.317
733.368	906.13
734.503	910.814
735.639	915.548
736.775	919.275
737.91	922.625
739.045	925.255
740.179	927.061
741.313	928.584
742.447	929.223
743.581	928.985
744.714	927.602
745.847	924.766
746.98	919.754
748.113	913.799
749.245	907.561
750.377	901.331
751.509	895.881
752.64	890.691
753.771	885.947
754.902	881.506
756.033	877.869
757.163	874.9
758.293	872.077
759.423	869.551
760.551	867.159
761.681	864.869
762.81	862.101
763.938	859.367
765.066	856.127
766.194	852.573
767.321	848.863
768.449	845.168
769.576	841.753
770.703	838.82
771.83	836.28
772.955	834.294
774.081	832.397
775.207	831.259
776.332	829.832
777.457	826.488
778.582	823.278
779.707	820.286
780.831	818.022
781.954	815.94
783.078	814.059
784.201	812.502
785.324	809.945
786.447	806.766
787.569	803.409
788.691	800.224
789.813	798.167
790.935	797.549
792.056	797.19
793.177	796.85
794.297	796.272
795.418	795.107
796.539	793.529
797.658	791.14
798.777	786.621
799.897	782.781
801.016	779.37
802.134	776.368
803.253	773.72
804.371	769.517
805.489	765.749
806.606	762.987
807.723	760.511
808.84	758.276
809.957	756.989
811.073	756.084
812.19	755.251
813.305	754.552
814.421	753.876
815.536	752.454
816.651	751.217
817.766	749.898
818.88	748.675
819.994	747.176
821.108	745.824
822.221	744.47
823.335	743.347
824.448	742.323
825.56	743.313
826.673	745.276
827.784	747.006
828.897	747.997
830.008	748.327
831.119	748.299
832.23	747.89
833.341	747.08
834.451	745.816
835.561	743.887
836.671	741.601
837.78	739.497
838.89	740.606
839.998	740.577
841.108	739.54
842.216	738.364
843.324	737.134
844.431	735.893
845.539	735.072
846.646	734.214
847.753	733.661
848.859	733.5
849.966	733.119
851.071	733.25
852.178	733.281
853.283	733.149
854.388	732.649
855.494	731.516
856.598	729.7
857.703	727.305
858.806	724.371
859.91	720.751
861.014	716.495
862.116	711.888
863.22	707.211
864.322	702.698
865.425	699.022
866.527	695.727
867.628	693.124
868.73	691.087
869.831	689.865
870.932	689.59
872.032	689.772
873.133	690.165
874.233	688.799
875.333	687.965
876.432	689.416
877.532	688.835
878.631	687.835
879.729	686.169
880.828	684.618
881.926	683.226
883.023	681.912
884.121	679.982
885.218	677.893
886.315	675.737
887.412	673.599
888.508	671.457
889.604	669.431
890.699	667.223
891.795	665.112
892.89	663.205
893.985	661.484
895.08	660.016
896.174	659.043
897.268	659.082
898.362	659.516
899.456	660.124
900.549	660.86
901.642	661.727
902.734	662.604
903.827	663.188
904.919	663.91
906.011	664.703
907.102	665.495
908.193	666.417
909.284	667.29
910.375	668.045
911.465	668.773
912.555	669.629
913.645	670.319
914.734	670.927
915.824	671.189
916.913	671.119
918.001	671.32
919.09	670.858
920.177	668.65
921.266	666.221
922.353	663.065
923.44	658.796
924.527	653.602
925.614	647.4
926.7	641.164
927.786	635.475
928.873	630.606
929.958	626.787
931.043	624.182
932.128	622.44
933.213	622.222
934.297	621.165
935.381	618.662
936.465	616.391
937.549	614.654
938.632	613.298
939.715	612.483
940.798	612.367
941.881	612.473
942.962	610.235
944.044	607.919
945.125	605.271
946.207	602.806
947.288	600.467
948.368	598.488
949.449	597.052
950.529	596.135
951.61	596.939
952.689	597.873
953.769	598.851
954.847	599.703
955.926	599.657
957.004	599.187
958.082	598.366
959.16	596.892
960.238	594.799
961.316	592.27
962.392	589.299
963.469	586.122
964.546	582.983
965.622	579.516
966.698	576.105
967.774	573.099
968.849	570.674
969.924	569.052
970.998	567.989
972.073	567.594
973.148	567.795
974.221	568.655
975.295	570.172
976.369	572.438
977.441	575.31
978.514	578.998
979.587	582.943
980.659	587.039
981.731	590.608
982.802	594.004
983.874	596.861
984.945	599.207
986.016	601.56
987.087	603.557
988.157	605.116
989.227	606.423
990.296	607.01
991.366	606.349
992.435	604.979
993.504	603.29
994.573	601.352
995.641	599.22
996.709	597.26
997.777	595.377
998.844	593.56
999.911	591.836
1000.98	589.626
1002.05	587.104
1003.11	584.331
1004.18	581.012
1005.24	577.646
1006.31	574.311
1007.37	570.856
1008.44	567.583
1009.5	564.28
1010.57	560.881
1011.63	557.385
1012.7	553.948
1013.76	550.901
1014.82	548.18
1015.89	545.501
1016.95	542.849
1018.01	540.228
1019.07	537.548
1020.13	534.711
1021.2	531.953
1022.26	528.489
1023.32	524.945
1024.38	521.489
1025.44	518.291
1026.5	515.31
1027.56	513.156
1028.62	511.232
1029.68	509.533
1030.74	508.186
1031.8	507.104
1032.85	506.225
1033.91	505.621
1034.97	505.322
1036.03	505.247
1037.09	506.213
1038.14	508.22
1039.2	510.612
1040.26	512.898
1041.31	515.123
1042.37	516.987
1043.42	518.399
1044.48	519.364
1045.53	519.589
1046.59	519.114
1047.64	518.048
1048.7	516.41
1049.75	514.068
1050.81	511.029
1051.86	507.174
1052.91	502.851
1053.97	500.61
1055.02	498.762
1056.07	497.105
1057.12	495.264
1058.17	494.786
1059.23	494.417
1060.28	494.293
1061.33	494.232
1062.38	494.189
1063.43	494.201
1064.48	493.897
1065.53	493.531
1066.58	493.07
1067.63	492.569
1068.68	491.983
1069.72	491.277
1070.77	490.646
1071.82	490.035
1072.87	489.184
1073.92	488.126
1074.96	485.751
1076.01	482.821
1077.06	477.913
1078.1	475.383
1079.15	473.508
1080.2	471.991
1081.24	470.8
1082.29	469.742
1083.33	468.658
1084.38	467.606
1085.42	466.71
1086.47	465.821
1087.51	465.367
1088.55	465.163
1089.6	465.857
1090.64	466.23
1091.68	463.903
1092.73	464.227
1093.77	464.695
1094.81	465.169
1095.85	464.906
1096.89	464.51
1097.93	464.104
1098.98	463.796
1100.02	463.399
1101.06	463.369
1102.1	463.863
1103.14	464.59
1104.18	465.205
1105.21	465.78
1106.25	466.11
1107.29	466.049
1108.33	465.725
1109.37	464.835
1110.41	463.101
1111.44	461.08
1112.48	458.7
1113.52	457.442
1114.56	456.03
1115.59	453.753
1116.63	450.907
1117.66	448.104
1118.7	445.578
1119.73	443.573
1120.77	442.062
1121.8	440.681
1122.84	439.19
1123.87	437.802
1124.91	436.464
1125.94	435.589
1126.97	435.123
1128.01	435.48
1129.04	436.166
1130.07	437.504
1131.11	439.471
1132.14	442.597
1133.17	446.324
1134.2	450.58
1135.23	453.999
1136.26	457.237
1137.29	460.441
1138.32	463.648
1139.35	467.243
1140.38	470.786
1141.41	474.233
1142.44	477.261
1143.47	479.535
1144.5	480.692
1145.53	480.84
1146.56	480.907
1147.58	482.785
1148.61	485.102
1149.64	489.029
1150.67	493.604
1151.69	498.293
1152.72	503.22
1153.75	507.428
1154.77	510.63
1155.8	512.293
1156.82	511.683
1157.85	509.436
1158.87	505.172
1159.9	499.313
1160.92	491.618
1161.95	478.878
1162.97	467.566
1163.99	457.288
1165.02	447.524
1166.04	438.334
1167.06	429.888
1168.08	423.086
1169.11	416.251
1170.13	412.811
1171.15	411.918
1172.17	413.309
1173.19	412.926
1174.21	417.644
1175.23	423.07
1176.25	428.744
1177.27	435.185
1178.29	441.326
1179.31	446.947
1180.33	451.375
1181.35	455.023
1182.37	457.679
1183.39	459.318
1184.4	454.864
1185.42	455.584
1186.44	455.876
1187.46	454.91
1188.47	452.978
1189.49	451.044
1190.51	447.773
1191.52	442.516
1192.54	437.03
1193.55	431.708
1194.57	426.915
1195.58	422.363
1196.6	417.979
1197.61	413.83
1198.63	410.158
1199.64	407.08
1200.65	404.81
1201.67	404.261
1202.68	404.054
1203.69	403.069
1204.7	401.668
1205.72	401.129
1206.73	401.973
1207.74	403.002
1208.75	403.55
1209.76	403.888
1210.77	404.021
1211.78	403.878
1212.79	403.69
1213.8	403.479
1214.81	403.501
1215.82	403.889
1216.83	404.609
1217.84	405.181
1218.85	405.929
1219.86	406.787
1220.87	408.734
1221.87	410.531
1222.88	411.99
1223.89	412.582
1224.9	412.737
1225.9	412.405
1226.91	411.705
1227.92	410.48
1228.92	408.678
1229.93	406.315
1230.93	403.425
1231.94	400.105
1232.94	396.383
1233.95	392.387
1234.95	388.265
1235.95	384.593
1236.96	380.916
1237.96	377.49
1238.96	374.446
1239.97	371.43
1240.97	368.429
1241.97	365.226
1242.97	362.062
1243.98	359.463
1244.98	357.492
1245.98	356.068
1246.98	355.751
1247.98	355.48
1248.98	355.375
1249.98	354.459
1250.98	353.526
1251.98	352.627
1252.98	351.978
1253.98	351.503
1254.98	351.176
1255.98	351.037
1256.97	350.983
1257.97	350.744
1258.97	350.919
1259.97	351.087
1260.97	351.287
1261.96	351.445
1262.96	351.607
1263.95	351.693
1264.95	351.759
1265.95	351.626
1266.94	351.408
1267.94	351.16
1268.93	350.712
1269.93	350.016
1270.92	349.226
1271.92	348.389
1272.91	347.443
1273.9	346.44
1274.9	345.021
1275.89	343.784
1276.88	343.707
1277.87	344.339
1278.87	345.385
1279.86	347.475
1280.85	349.185
1281.84	350.413
1282.83	351.143
1283.82	351.92
1284.81	352.232
1285.81	352.158
1286.8	351.508
1287.79	350.001
1288.77	347.49
1289.76	344.494
1290.75	340.801
1291.74	337.956
1292.73	336.08
1293.72	334.411
1294.71	331.742
1295.69	329.408
1296.68	327.607
1297.67	325.827
1298.65	324.178
1299.64	322.933
1300.63	322.065
1301.61	321.409
1302.6	321.558
1303.58	321.997
1304.57	322.317
1305.55	321.87
1306.54	320.659
1307.52	319.32
1308.51	317.827
1309.49	316.416
1310.48	315.584
1311.46	314.987
1312.44	314.634
1313.42	314.332
1314.41	313.602
1315.39	313.026
1316.37	314.96
1317.35	315.175
1318.33	318.673
1319.32	322.943
1320.3	327.767
1321.28	333.031
1322.26	339.408
1323.24	345.097
1324.22	349.455
1325.2	352.24
1326.18	353.388
1327.15	353.286
1328.13	351.63
1329.11	346.453
1330.09	343.466
1331.07	338.613
1332.05	332.235
1333.02	327.43
1334	323.064
1334.98	319.272
1335.95	316.736
1336.93	312.973
1337.91	310.113
1338.88	309.342
1339.86	306.842
1340.83	304.662
1341.81	303.22
1342.78	302.094
1343.76	301.281
1344.73	300.661
1345.7	300.234
1346.68	299.962
1347.65	299.829
1348.62	299.966
1349.6	300.264
1350.57	300.606
1351.54	301.142
1352.51	301.613
1353.49	301.896
1354.46	301.944
1355.43	301.314
1356.4	300.151
1357.37	298.72
1358.34	297.042
1359.31	294.843
1360.28	291.804
1361.25	288.379
1362.22	285.72
1363.19	283.606
1364.16	281.982
1365.12	280.732
1366.09	279.88
1367.06	279.223
1368.03	278.659
1369	278.521
1369.96	279.571
1370.93	279.521
1371.9	280.166
1372.86	280.799
1373.83	281.69
1374.79	282.092
1375.76	282.088
1376.73	281.996
1377.69	281.947
1378.66	281.275
1379.62	280.554
1380.58	280.459
1381.55	280.541
1382.51	280.781
1383.48	281.589
1384.44	282.256
1385.4	282.724
1386.36	283.155
1387.33	283.449
1388.29	283.529
1389.25	283.353
1390.21	282.998
1391.17	282.33
1392.13	281.501
1393.09	280.47
1394.06	279.131
1395.01	277.627
1395.97	275.568
1396.93	273.221
1397.89	270.638
1398.85	268.246
1399.81	266.489
1400.77	264.505
1401.73	262.736
1402.69	261.202
1403.64	259.852
1404.6	258.581
1405.56	257.456
1406.52	256.241
1407.47	255.665
1408.43	255.25
1409.39	254.913
1410.34	254.681
1411.3	254.547
1412.25	254.474
1413.21	254.504
1414.16	254.567
1415.12	254.639
1416.07	254.358
1417.03	254.218
1417.98	254.136
1418.93	254.125
1419.89	254.095
1420.84	254.137
1421.79	254.139
1422.74	254.041
1423.7	254.004
1424.65	254.001
1425.6	254.136
1426.55	254.5
1427.5	255.713
1428.45	256.756
1429.4	257.893
1430.35	258.57
1431.3	260.339
1432.25	261.928
1433.2	263.471
1434.15	264.797
1435.1	265.89
1436.05	266.753
1437	267.508
1437.95	267.905
1438.89	267.527
1439.84	267.195
1440.79	266.454
1441.74	265.505
1442.68	264.337
1443.63	263.023
1444.58	261.507
1445.52	259.668
1446.47	257.723
1447.41	255.772
1448.36	254.264
1449.3	252.758
1450.25	251.442
1451.19	249.351
1452.14	247.505
1453.08	245.867
1454.03	244.568
1454.97	243.947
1455.91	243.306
1456.85	242.367
1457.8	241.357
1458.74	240.334
1459.68	239.07
1460.62	237.861
1461.57	236.786
1462.51	236.343
1463.45	235.879
1464.39	235.169
1465.33	234.069
1466.27	232.959
1467.21	231.775
1468.15	230.412
1469.09	229.056
1470.03	227.807
1470.97	226.622
1471.9	225.704
1472.84	224.846
1473.78	224.134
1474.72	223.427
1475.66	222.797
1476.59	222.311
1477.53	221.922
1478.47	221.945
1479.4	222.446
1480.34	224.07
1481.28	226.482
1482.21	229.233
1483.15	232.117
1484.08	234.537
1485.02	236.564
1485.95	238.601
1486.89	239.212
1487.82	240.301
1488.76	240.679
1489.69	240.392
1490.62	239.531
1491.56	238.106
1492.49	235.899
1493.42	233.397
1494.35	231.567
1495.29	229.572
1496.22	227.118
1497.15	224.997
1498.08	224.395
1499.01	224.397
1499.94	224.808
1500.87	225.457
1501.8	226.115
1502.73	226.607
1503.66	227.829
1504.59	228.615
1505.52	229.658
1506.45	231.334
1507.38	233.444
1508.31	235.973
1509.23	239.065
1510.16	241.314
1511.09	244.3
1512.02	247.428
1512.94	251.001
1513.87	254.87
1514.8	259.866
1515.72	264.099
1516.65	269.751
1517.58	275.794
1518.5	282.001
1519.43	288.257
1520.35	294.162
1521.28	299.399
1522.2	303.392
1523.12	306.371
1524.05	309.403
1524.97	311.474
1525.9	312.16
1526.82	311.681
1527.74	310.084
1528.66	307.151
1529.59	303.564
1530.51	299.509
1531.43	295.141
1532.35	290.797
1533.27	286.669
1534.19	280.796
1535.11	275.026
1536.04	269.322
1536.96	264.129
1537.88	257.76
1538.8	250.901
1539.71	243.971
1540.63	236.931
1541.55	231.977
1542.47	227.313
1543.39	225.92
1544.31	225.259
1545.23	226.985
1546.14	227.701
1547.06	229.12
1547.98	230.857
1548.89	231.281
1549.81	230.864
1550.73	231.137
1551.64	231.178
1552.56	230.291
1553.47	228.929
1554.39	227.1
1555.31	224.943
1556.22	222.497
1557.13	219.687
1558.05	216.73
1558.96	213.53
1559.88	210.73
1560.79	208.377
1561.7	206.6
1562.62	204.538
1563.53	203.172
1564.44	202.186
1565.35	201.614
1566.27	201.304
1567.18	201.393
1568.09	201.135
1569	200.757
1569.91	200.369
1570.82	200.053
1571.73	200.034
1572.64	199.555
1573.55	198.898
1574.46	198.285
1575.37	197.611
1576.28	196.976
1577.19	196.438
1578.1	195.989
1579	195.725
1579.91	195.596
1580.82	195.576
1581.73	195.679
1582.63	195.895
1583.54	196.228
1584.45	196.859
1585.35	197.519
1586.26	198.329
1587.17	199.164
1588.07	200.076
1588.98	200.954
1589.88	201.559
1590.79	202.075
1591.69	202.467
1592.6	202.854
1593.5	203.196
1594.4	203.575
1595.31	203.964
1596.21	204.354
1597.11	204.684
1598.02	205.332
1598.92	205.773
1599.82	206.242
1600.72	206.652
1601.63	207.214
1602.53	207.914
1603.43	208.8
1604.33	209.668
1605.23	210.286
1606.13	210.449
1607.03	210.263
1607.93	209.683
1608.83	208.779
1609.73	207.412
1610.63	205.961
1611.53	204.579
1612.43	203.181
1613.32	201.996
1614.22	200.976
1615.12	200.215
1616.02	199.678
1616.92	199.292
1617.81	199.233
1618.71	199.398
1619.61	199.68
1620.5	200.037
1621.4	200.418
1622.29	200.369
1623.19	200.039
1624.08	199.6
1624.98	198.927
1625.87	198.468
1626.77	198.552
1627.66	198.939
1628.56	199.473
1629.45	200.123
1630.34	200.878
1631.24	201.691
1632.13	202.599
1632.84	203.321
1633.77	204.351
1634.7	205.151
1635.63	203.283
1636.56	201.572
1637.49	201.076
1638.42	201.167
1639.34	201.449
1640.27	202.098
1641.2	201.011
1642.13	199.971
1643.05	198.939
1643.98	197.955
1644.91	197.046
1645.83	196.207
1646.76	195.461
1647.68	194.853
1648.61	194.387
1649.54	194.048
1650.46	193.675
1651.39	193.412
1652.31	193.164
1653.23	192.974
1654.16	192.861
1655.08	192.838
1656.01	192.82
1656.93	192.843
1657.85	192.486
1658.78	192.904
1659.7	193.394
1660.62	193.93
1661.54	194.351
1662.47	194.733
1663.39	194.946
1664.31	195.179
1665.23	194.957
1666.15	194.589
1667.07	194.129
1667.99	193.581
1668.92	192.95
1669.84	192.243
1670.76	191.498
1671.68	190.714
1672.6	189.881
1673.52	189.139
1674.43	188.712
1675.35	188.266
1676.27	187.891
1677.19	187.314
1678.11	186.782
1679.03	186.19
1679.95	185.33
1680.86	184.987
1681.78	185.063
1682.7	185.098
1683.61	185.06
1684.53	184.728
1685.45	184.188
1686.36	183.061
1687.28	181.71
1688.2	180.491
1689.11	179.413
1690.03	178.927
1690.94	177.879
1691.86	176.773
1692.77	175.74
1693.69	174.8
1694.6	174.025
1695.52	173.428
1696.43	173.106
1697.34	173.263
1698.26	173.737
1699.17	174.708
1700.08	175.785
1700.99	176.683
1701.91	176.376
1702.82	175.416
1703.73	174.081
1704.64	172.532
1705.55	170.828
1706.47	169.469
1707.38	168.14
1708.29	167.014
1709.2	165.808
1710.11	164.755
1711.02	163.597
1711.93	163.696
1712.84	163.973
1713.75	164.391
1714.66	164.727
1715.57	165.159
1716.48	165.573
1717.39	166.032
1718.29	166.47
1719.2	166.761
1720.11	167.05
1721.02	167.244
1721.93	167.428
1722.83	167.518
1723.74	167.497
1724.65	166.416
1725.55	165.725
1726.46	165.163
1727.37	164.88
1728.27	164.74
1729.18	165.005
1730.08	164.61
1730.99	164.687
1731.89	164.448
1732.8	163.575
1733.7	162.698
1734.61	162.713
1735.51	162.037
1736.42	161.07
1737.32	160.253
1738.22	159.498
1739.13	158.789
1740.03	158.154
1740.93	157.632
1741.83	157.309
1742.74	157.22
1743.64	157.199
1744.54	157.258
1745.44	157.404
1746.34	157.682
1747.24	157.915
1748.15	158.072
1749.05	158.164
1749.95	158.204
1750.85	158.155
1751.75	158.082
1752.65	158.018
1753.55	157.923
1754.45	157.832
1755.35	157.725
1756.25	157.653
1757.14	157.614
1758.04	157.714
1758.94	157.672
1759.84	157.618
1760.74	157.506
1761.63	157.391
1762.53	157.365
1763.43	157.255
1764.33	157.106
1765.22	156.833
1766.12	156.466
1767.02	155.884
1767.91	155.242
1768.81	154.211
1769.7	153.124
1770.6	152.115
1771.49	151.165
1772.39	150.42
1773.28	149.825
1774.18	150.003
1775.07	150.301
1775.97	150.982
1776.86	152.419
1777.75	153.445
1778.65	153.485
1779.54	153.427
1780.43	153.32
1781.33	153.112
1782.22	152.827
1783.11	151.072
1784	150.421
1784.89	149.891
1785.79	149.628
1786.68	149.751
1787.57	150.05
1788.46	149.899
1789.35	149.196
1790.24	148.39
1791.13	147.587
1792.02	146.705
1792.91	145.729
1793.8	144.649
1794.69	143.522
1795.58	141.907
1796.47	138.362
1797.36	134.848
1798.25	131.563
1799.13	128.502
