Acq. time (s)=	15
Accumulations=	2
Range (cm-¹)=	600...1800
Windows=	2
Autofocus=	Off
AutoExposure=	On
Spike filter=	Multiple accum.
Delay time (s)=	1
Binning=	1
Readout mode=	Signal
DeNoise=	Standard
ICS correction=	Off
Dark correction=	Off
Inst. Process=	Off
Instrument=	XploRA
Detector=	Syncerity
Objective=	x20LWD
Grating=	1200 gr/mm
Filter=	25%
Laser (nm)=	785 
Slit (µm)=	100 
Hole (µm)=	300 
Laser pol=	None
Raman pol=	None
Output=	Camera
StageXY=	Marzhauser
StageZ=	
X (µm)=	-1116.2
Y (µm)=	271.5
Project=	
Sample=	
Site=	
Title=	To1-T
Remark=	
Date=	14.10.2022 18:16
Acquired=	14.10.2022 18:16:45
600.787	428.912
601.956	435.978
603.126	442.792
604.294	449.721
605.463	456.451
606.631	462.973
607.8	469.194
608.967	475.178
610.135	480.928
611.302	486.422
612.468	491.664
613.635	496.642
614.802	501.433
615.968	505.98
617.133	510.191
618.299	514.176
619.464	517.921
620.629	521.373
621.793	524.598
622.958	527.671
624.121	530.506
625.285	533.194
626.448	535.613
627.612	537.837
628.774	539.828
629.937	541.642
631.099	543.255
632.261	544.636
633.423	545.806
634.584	546.847
635.745	547.626
636.906	548.123
638.066	548.463
639.227	548.442
640.386	548.203
641.546	547.609
642.705	546.742
643.864	546.005
645.023	545.337
646.181	545.629
647.339	546.003
648.497	546.64
649.655	547.686
650.812	549.19
651.969	551.595
653.125	554.333
654.282	557.063
655.438	559.623
656.593	561.459
657.75	562.862
658.905	564.128
660.059	565.315
661.214	566.492
662.368	567.594
663.522	568.729
664.676	569.917
665.83	571.13
666.983	572.434
668.136	573.734
669.288	575.071
670.441	576.471
671.592	577.792
672.744	579.261
673.895	580.643
675.046	582.025
676.197	583.07
677.348	583.353
678.498	582.923
679.648	582.508
680.798	581.964
681.947	581.278
683.096	580.58
684.245	579.983
685.394	579.847
686.542	580.638
687.69	582.063
688.837	583.361
689.984	584.6
691.132	584.872
692.278	584.827
693.425	584.48
694.571	584.127
695.717	583.887
696.863	584.078
698.008	583.99
699.152	583.773
700.298	583.355
701.442	582.806
702.586	581.601
703.73	579.953
704.873	578.81
706.017	578.827
707.16	579.032
708.302	579.764
709.445	580.617
710.586	581.566
711.729	582.081
712.87	582.504
714.012	582.452
715.152	582.061
716.293	581.314
717.433	580.925
718.573	580.282
719.713	579.619
720.853	578.47
721.991	576.417
723.131	572.927
724.269	569.608
725.408	566.48
726.545	564.107
727.683	562.415
728.821	561.371
729.958	561.078
731.095	561.512
732.231	562.682
733.368	564.522
734.503	567.001
735.639	569.996
736.775	573.185
737.91	577.063
739.045	581.098
740.179	585.193
741.313	588.711
742.447	591.262
743.581	592.616
744.714	592.702
745.847	592.059
746.98	591.022
748.113	589.495
749.245	587.608
750.377	585.83
751.509	583.85
752.64	581.685
753.771	579.036
754.902	576.063
756.033	572.774
757.163	568.731
758.293	564.437
759.423	560.081
760.551	555.685
761.681	551.383
762.81	548.024
763.938	543.978
765.066	540.187
766.194	536.458
767.321	533.169
768.449	530.273
769.576	527.734
770.703	526.747
771.83	525.975
772.955	525.485
774.081	525.058
775.207	524.433
776.332	523.521
777.457	522.67
778.582	521.763
779.707	520.793
780.831	519.707
781.954	518.574
783.078	517.451
784.201	516.361
785.324	515.196
786.447	513.817
787.569	512.702
788.691	511.549
789.813	510.497
790.935	509.359
792.056	507.962
793.177	506.396
794.297	504.532
795.418	502.178
796.539	499.229
797.658	496.336
798.777	493.468
799.897	490.702
801.016	488.84
802.134	487.052
803.253	485.358
804.371	484.456
805.489	483.696
806.606	482.935
807.723	481.996
808.84	481.194
809.957	480.454
811.073	479.824
812.19	479.028
813.305	478.251
814.421	477.435
815.536	476.661
816.651	475.851
817.766	475.074
818.88	474.318
819.994	473.646
821.108	473.108
822.221	472.843
823.335	473.026
824.448	473.157
825.56	472.861
826.673	472.946
827.784	473.056
828.897	473.331
830.008	473.57
831.119	473.774
832.23	474.21
833.341	474.522
834.451	474.792
835.561	474.941
836.671	474.938
837.78	474.738
838.89	474.326
839.998	473.187
841.108	472.163
842.216	470.542
843.324	468.767
844.431	466.912
845.539	464.949
846.646	463.254
847.753	462.804
848.859	462.882
849.966	462.468
851.071	461.206
852.178	459.879
853.283	458.138
854.388	456.289
855.494	454.709
856.598	453.276
857.703	451.511
858.806	449.444
859.91	446.921
861.014	443.484
862.116	439.635
863.22	435.927
864.322	432.658
865.425	430.161
866.527	428.196
867.628	427.159
868.73	426.699
869.831	426.84
870.932	427.36
872.032	428.253
873.133	429.306
874.233	430.634
875.333	431.768
876.432	432.883
877.532	433.895
878.631	434.593
879.729	435.03
880.828	435.109
881.926	434.468
883.023	433.197
884.121	431.764
885.218	430.151
886.315	428.739
887.412	428.013
888.508	427.167
889.604	426.599
890.699	426.076
891.795	425.625
892.89	425.179
893.985	424.615
895.08	424.032
896.174	423.254
897.268	421.916
898.362	420.727
899.456	418.993
900.549	417.157
901.642	415.613
902.734	414.62
903.827	414.001
904.919	413.835
906.011	414.167
907.102	414.95
908.193	416.311
909.284	417.703
910.375	419.364
911.465	421.236
912.555	423.482
913.645	426.834
914.734	429.779
915.824	431.179
916.913	430.745
918.001	429.283
919.09	427.096
920.177	424.354
921.266	421.455
922.353	418.272
923.44	414.588
924.527	409.75
925.614	407.606
926.7	405.904
927.786	403.817
928.873	401.886
929.958	400.144
931.043	398.385
932.128	397.378
933.213	396.419
934.297	395.785
935.381	394.488
936.465	392.37
937.549	390.266
938.632	388.068
939.715	385.707
940.798	383.488
941.881	381.321
942.962	379.201
944.044	376.991
945.125	375.488
946.207	374.223
947.288	373.308
948.368	372.524
949.449	371.863
950.529	371.173
951.61	370.693
952.689	370.315
953.769	370.112
954.847	370.066
955.926	370.114
957.004	370.266
958.082	370.535
959.16	371.068
960.238	371.614
961.316	372.158
962.392	372.598
963.469	372.91
964.546	372.363
965.622	371.485
966.698	370.47
967.774	369.456
968.849	368.315
969.924	367.202
970.998	366.305
972.073	365.276
973.148	364.12
974.221	364.453
975.295	365.3
976.369	366.545
977.441	368.128
978.514	369.921
979.587	372.016
980.659	374.571
981.731	381.907
982.802	383.004
983.874	383.512
984.945	383.428
986.016	382.959
987.087	382.065
988.157	380.854
989.227	379.24
990.296	377.256
991.366	374.292
992.435	372.648
993.504	371.487
994.573	370.858
995.641	370.91
996.709	371.213
997.777	371.421
998.844	372.433
999.911	373.317
1000.98	373.923
1002.05	374.161
1003.11	373.929
1004.18	372.812
1005.24	371.257
1006.31	369.274
1007.37	367.003
1008.44	363.964
1009.5	360.659
1010.57	357.549
1011.63	355.251
1012.7	352.898
1013.76	350.598
1014.82	348.632
1015.89	346.044
1016.95	343.396
1018.01	340.784
1019.07	338.245
1020.13	335.895
1021.2	333.953
1022.26	332.112
1023.32	330.371
1024.38	328.825
1025.44	327.378
1026.5	326.098
1027.56	324.926
1028.62	323.863
1029.68	322.96
1030.74	322.205
1031.8	321.57
1032.85	321.099
1033.91	320.747
1034.97	320.392
1036.03	320.191
1037.09	320.451
1038.14	320.883
1039.2	321.524
1040.26	322.541
1041.31	323.381
1042.37	324.467
1043.42	325.394
1044.48	326.554
1045.53	327.695
1046.59	328.712
1047.64	329.39
1048.7	329.734
1049.75	329.163
1050.81	327.95
1051.86	326.224
1052.91	323.389
1053.97	319.586
1055.02	315.833
1056.07	312.6
1057.12	310.089
1058.17	308.038
1059.23	306.794
1060.28	306.066
1061.33	305.791
1062.38	306.392
1063.43	307.344
1064.48	308.719
1065.53	310.426
1066.58	312.109
1067.63	313.269
1068.68	314.33
1069.72	315.054
1070.77	315.07
1071.82	314.665
1072.87	313.392
1073.92	311.086
1074.96	308.701
1076.01	306.319
1077.06	304.096
1078.1	302.19
1079.15	300.478
1080.2	298.934
1081.24	297.747
1082.29	296.728
1083.33	295.853
1084.38	295.112
1085.42	294.469
1086.47	294.113
1087.51	293.879
1088.55	293.85
1089.6	293.742
1090.64	293.611
1091.68	293.546
1092.73	293.161
1093.77	292.736
1094.81	292.471
1095.85	292.543
1096.89	292.83
1097.93	293.053
1098.98	293.246
1100.02	293.381
1101.06	293.566
1102.1	293.335
1103.14	292.707
1104.18	292.151
1105.21	291.535
1106.25	290.989
1107.29	290.566
1108.33	290.181
1109.37	289.669
1110.41	289.01
1111.44	288.194
1112.48	287.053
1113.52	285.906
1114.56	284.668
1115.59	283.404
1116.63	282.06
1117.66	280.748
1118.7	279.462
1119.73	277.831
1120.77	276.258
1121.8	274.79
1122.84	273.404
1123.87	272.275
1124.91	271.366
1125.94	271.292
1126.97	271.564
1128.01	272.13
1129.04	272.974
1130.07	274.151
1131.11	275.497
1132.14	277.06
1133.17	278.752
1134.2	280.136
1135.23	281.996
1136.26	283.904
1137.29	285.822
1138.32	287.525
1139.35	288.263
1140.38	289.054
1141.41	290.193
1142.44	291.65
1143.47	293.199
1144.5	294.579
1145.53	295.447
1146.56	295.375
1147.58	296.222
1148.61	299.033
1149.64	302.346
1150.67	305.83
1151.69	309.517
1152.72	312.44
1153.75	315.48
1154.77	318.303
1155.8	321.1
1156.82	321.852
1157.85	321.216
1158.87	319.226
1159.9	315.882
1160.92	311.44
1161.95	305.014
1162.97	299.214
1163.99	293.895
1165.02	289.13
1166.04	284.846
1167.06	281.017
1168.08	277.279
1169.11	274.101
1170.13	271.48
1171.15	271.06
1172.17	269.687
1173.19	268.608
1174.21	267.827
1175.23	267.518
1176.25	267.683
1177.27	268.437
1178.29	269.736
1179.31	271.398
1180.33	273.878
1181.35	276.856
1182.37	279.97
1183.39	283.11
1184.4	285.05
1185.42	286.911
1186.44	288.157
1187.46	288.571
1188.47	288.084
1189.49	281.27
1190.51	278.746
1191.52	275.973
1192.54	273.002
1193.55	270.091
1194.57	267.367
1195.58	264.848
1196.6	262.568
1197.61	260.558
1198.63	258.779
1199.64	257.884
1200.65	257.155
1201.67	256.728
1202.68	256.473
1203.69	256.34
1204.7	256.286
1205.72	255.999
1206.73	255.861
1207.74	255.984
1208.75	256.185
1209.76	256.518
1210.77	256.864
1211.78	257.293
1212.79	257.723
1213.8	258.143
1214.81	258.569
1215.82	258.915
1216.83	259.362
1217.84	259.571
1218.85	259.965
1219.86	260.248
1220.87	260.425
1221.87	260.458
1222.88	260.344
1223.89	259.997
1224.9	259.447
1225.9	258.484
1226.91	257.34
1227.92	255.96
1228.92	254.302
1229.93	252.421
1230.93	249.887
1231.94	247.168
1232.94	244.532
1233.95	242.009
1234.95	240.025
1235.95	238.245
1236.96	236.501
1237.96	235.145
1238.96	233.896
1239.97	232.797
1240.97	231.809
1241.97	230.914
1242.97	230.141
1243.98	229.371
1244.98	228.67
1245.98	228.026
1246.98	227.305
1247.98	226.592
1248.98	225.83
1249.98	224.904
1250.98	224.232
1251.98	223.691
1252.98	223.224
1253.98	222.926
1254.98	222.707
1255.98	222.958
1256.97	223.131
1257.97	223.504
1258.97	224.192
1259.97	224.897
1260.97	225.573
1261.96	226.095
1262.96	226.3
1263.95	225.533
1264.95	224.489
1265.95	223.443
1266.94	222.386
1267.94	221.763
1268.93	220.662
1269.93	219.28
1270.92	217.671
1271.92	215.844
1272.91	214.189
1273.9	212.813
1274.9	212.048
1275.89	211.547
1276.88	211.565
1277.87	212.675
1278.87	214.097
1279.86	215.554
1280.85	217.085
1281.84	218.165
1282.83	219.021
1283.82	219.795
1284.81	220.343
1285.81	220.656
1286.8	220.77
1287.79	220.61
1288.77	219.976
1289.76	218.886
1290.75	217.534
1291.74	215.911
1292.73	214.163
1293.72	212.242
1294.71	210.336
1295.69	208.786
1296.68	207.211
1297.67	205.843
1298.65	204.704
1299.64	203.99
1300.63	203.451
1301.61	203.006
1302.6	202.933
1303.58	202.987
1304.57	203.078
1305.55	203.215
1306.54	202.945
1307.52	201.958
1308.51	201.103
1309.49	200.285
1310.48	199.536
1311.46	198.833
1312.44	198.437
1313.42	198.206
1314.41	198.215
1315.39	198.399
1316.37	198.988
1317.35	199.803
1318.33	201.48
1319.32	203.188
1320.3	206.584
1321.28	210.655
1322.26	215.054
1323.24	219.466
1324.22	223.8
1325.2	227.977
1326.18	231.468
1327.15	233.586
1328.13	234.663
1329.11	234.159
1330.09	232.666
1331.07	228.343
1332.05	222.348
1333.02	215.835
1334	208.164
1334.98	203.523
1335.95	199.938
1336.93	196.669
1337.91	194.543
1338.88	196.574
1339.86	196.237
1340.83	195.647
1341.81	195.129
1342.78	194.367
1343.76	193.485
1344.73	192.535
1345.7	191.394
1346.68	190.271
1347.65	189.154
1348.62	188.099
1349.6	187.111
1350.57	186.24
1351.54	185.837
1352.51	186.318
1353.49	187.653
1354.46	188.954
1355.43	190.214
1356.4	191.231
1357.37	191.675
1358.34	191.725
1359.31	191.303
1360.28	189.77
1361.25	187.654
1362.22	186.11
1363.19	184.364
1364.16	182.652
1365.12	180.908
1366.09	179.09
1367.06	177.581
1368.03	176.751
1369	177.651
1369.96	177.564
1370.93	177.497
1371.9	177.42
1372.86	177.405
1373.83	177.331
1374.79	177.251
1375.76	177.088
1376.73	176.908
1377.69	176.684
1378.66	176.461
1379.62	176.268
1380.58	175.939
1381.55	175.609
1382.51	175.24
1383.48	174.846
1384.44	174.446
1385.4	174.019
1386.36	173.602
1387.33	173.173
1388.29	172.752
1389.25	172.235
1390.21	171.72
1391.17	171.464
1392.13	171.167
1393.09	171.062
1394.06	170.905
1395.01	170.659
1395.97	170.359
1396.93	169.949
1397.89	169.524
1398.85	168.895
1399.81	167.67
1400.77	166.386
1401.73	164.88
1402.69	163.362
1403.64	161.819
1404.6	160.325
1405.56	158.861
1406.52	158.006
1407.47	157.174
1408.43	156.708
1409.39	156.52
1410.34	156.78
1411.3	157.283
1412.25	158.316
1413.21	160.29
1414.16	162.007
1415.12	163.582
1416.07	163.937
1417.03	163.804
1417.98	163.111
1418.93	162.238
1419.89	161.231
1420.84	160.273
1421.79	159.722
1422.74	159.273
1423.7	158.857
1424.65	158.625
1425.6	158.465
1426.55	158.503
1427.5	161.181
1428.45	161.178
1429.4	161.096
1430.35	161.094
1431.3	161.196
1432.25	161.345
1433.2	161.54
1434.15	161.688
1435.1	161.895
1436.05	162.195
1437	162.393
1437.95	162.742
1438.89	163.038
1439.84	163.333
1440.79	163.575
1441.74	163.753
1442.68	163.899
1443.63	163.847
1444.58	163.814
1445.52	163.285
1446.47	162.313
1447.41	161.094
1448.36	159.905
1449.3	159.123
1450.25	158.287
1451.19	157.864
1452.14	157.239
1453.08	156.588
1454.03	155.774
1454.97	155.059
1455.91	154.214
1456.85	153.504
1457.8	152.759
1458.74	152.125
1459.68	151.431
1460.62	150.843
1461.57	150.203
1462.51	149.639
1463.45	149.03
1464.39	148.475
1465.33	147.914
1466.27	147.338
1467.21	146.786
1468.15	146.183
1469.09	145.578
1470.03	144.926
1470.97	144.188
1471.9	143.435
1472.84	142.443
1473.78	141.477
1474.72	140.817
1475.66	140.752
1476.59	141.507
1477.53	142.586
1478.47	143.788
1479.4	145.054
1480.34	146.277
1481.28	147.391
1482.21	147.995
1483.15	149.175
1484.08	150.317
1485.02	151.361
1485.95	152.317
1486.89	153.062
1487.82	153.663
1488.76	154.108
1489.69	154.294
1490.62	154.044
1491.56	153.691
1492.49	153.293
1493.42	152.641
1494.35	151.714
1495.29	150.694
1496.22	149.693
1497.15	148.464
1498.08	147.328
1499.01	146.358
1499.94	145.578
1500.87	144.977
1501.8	144.589
1502.73	144.562
1503.66	144.626
1504.59	144.863
1505.52	145.546
1506.45	146.549
1507.38	147.903
1508.31	149.493
1509.23	151.318
1510.16	153.354
1511.09	155.549
1512.02	157.923
1512.94	160.469
1513.87	163.171
1514.8	166.028
1515.72	168.751
1516.65	171.735
1517.58	174.887
1518.5	178.159
1519.43	181.602
1520.35	185.072
1521.28	188.62
1522.2	192.196
1523.12	195.723
1524.05	198.851
1524.97	201.264
1525.9	203.45
1526.82	206.36
1527.74	207.377
1528.66	207.518
1529.59	206.775
1530.51	205.281
1531.43	202.847
1532.35	199.55
1533.27	195.235
1534.19	190.489
1535.11	185.565
1536.04	180.432
1536.96	175.471
1537.88	170.739
1538.8	166.345
1539.71	162.395
1540.63	159.2
1541.55	156.464
1542.47	154.229
1543.39	152.463
1544.31	151.228
1545.23	150.514
1546.14	150.35
1547.06	150.922
1547.98	151.571
1548.89	152.306
1549.81	152.702
1550.73	152.897
1551.64	152.905
1552.56	152.68
1553.47	152.072
1554.39	151.218
1555.31	150.072
1556.22	148.633
1557.13	147.121
1558.05	145.233
1558.96	143.315
1559.88	141.506
1560.79	139.826
1561.7	138.615
1562.62	137.608
1563.53	136.781
1564.44	136.349
1565.35	136.045
1566.27	136.19
1567.18	136.393
1568.09	136.776
1569	137.193
1569.91	137.543
1570.82	137.414
1571.73	137.219
1572.64	136.883
1573.55	136.201
1574.46	135.305
1575.37	134.171
1576.28	133.16
1577.19	132.156
1578.1	131.203
1579	130.473
1579.91	130.119
1580.82	129.84
1581.73	129.683
1582.63	129.736
1583.54	130.112
1584.45	130.519
1585.35	131.132
1586.26	131.756
1587.17	132.493
1588.07	133.053
1588.98	133.616
1589.88	134.234
1590.79	134.38
1591.69	134.249
1592.6	134.244
1593.5	134.356
1594.4	134.342
1595.31	134.655
1596.21	134.94
1597.11	135.336
1598.02	135.883
1598.92	136.696
1599.82	137.799
1600.72	139.313
1601.63	140.875
1602.53	142.247
1603.43	143.494
1604.33	144.553
1605.23	145.564
1606.13	146.467
1607.03	146.987
1607.93	147.374
1608.83	147.577
1609.73	147.51
1610.63	147.481
1611.53	147.839
1612.43	147.698
1613.32	147.212
1614.22	147.198
1615.12	146.655
1616.02	145.877
1616.92	144.745
1617.81	143.834
1618.71	142.824
1619.61	141.931
1620.5	141.064
1621.4	140.438
1622.29	140.197
1623.19	139.964
1624.08	139.954
1624.98	140.267
1625.87	140.545
1626.77	140.667
1627.66	140.726
1628.56	140.776
1629.45	140.839
1630.34	140.71
1631.24	140.298
1632.13	140.112
1632.84	139.844
1633.77	139.041
1634.7	138.505
1635.63	137.622
1636.56	136.852
1637.49	136.273
1638.42	136.302
1639.34	136.784
1640.27	137.388
1641.2	138.138
1642.13	138.458
1643.05	138.881
1643.98	139.302
1644.91	139.479
1645.83	139.722
1646.76	139.467
1647.68	138.761
1648.61	138.14
1649.54	137.896
1650.46	138.034
1651.39	137.933
1652.31	138.243
1653.23	138.412
1654.16	138.507
1655.08	138.571
1656.01	138.982
1656.93	139.766
1657.85	139.636
1658.78	139.014
1659.7	137.954
1660.62	136.991
1661.54	136.073
1662.47	135.595
1663.39	135.061
1664.31	134.254
1665.23	133.726
1666.15	133.532
1667.07	134.087
1667.99	134.759
1668.92	135.419
1669.84	136.277
1670.76	138.594
1671.68	140.219
1672.6	140.124
1673.52	139.557
1674.43	138.346
1675.35	136.604
1676.27	135.266
1677.19	134.081
1678.11	132.904
1679.03	131.105
1679.95	129.829
1680.86	128.848
1681.78	128.102
1682.7	127.67
1683.61	127.022
1684.53	127.471
1685.45	128.866
1686.36	128.868
1687.28	128.887
1688.2	129.076
1689.11	129.335
1690.03	128.78
1690.94	127.584
1691.86	126.552
1692.77	126.015
1693.69	124.958
1694.6	124.715
1695.52	124.727
1696.43	124.317
1697.34	123.664
1698.26	123.248
1699.17	123.174
1700.08	122.962
1700.99	123.154
1701.91	123.278
1702.82	123.732
1703.73	123.682
1704.64	123.992
1705.55	124.197
1706.47	124.169
1707.38	124.114
1708.29	123.641
1709.2	122.638
1710.11	121.715
1711.02	120.59
1711.93	119.544
1712.84	118.929
1713.75	118.91
1714.66	118.86
1715.57	118.791
1716.48	119.208
1717.39	119.708
1718.29	120.259
1719.2	120.878
1720.11	120.667
1721.02	120.685
1721.93	120.825
1722.83	121.425
1723.74	121.598
1724.65	121.836
1725.55	121.662
1726.46	121.309
1727.37	120.575
1728.27	120.042
1729.18	119.86
1730.08	119.38
1730.99	118.739
1731.89	118.088
1732.8	117.223
1733.7	116.387
1734.61	115.619
1735.51	115.045
1736.42	114.489
1737.32	113.659
1738.22	112.627
1739.13	112.554
1740.03	112.378
1740.93	113.03
1741.83	113.689
1742.74	114.504
1743.64	115.017
1744.54	115.403
1745.44	115.549
1746.34	115.562
1747.24	115.758
1748.15	115.71
1749.05	115.349
1749.95	115.078
1750.85	115.066
1751.75	113.242
1752.65	111.369
1753.55	110.131
1754.45	109.073
1755.35	107.831
1756.25	107.199
1757.14	106.942
1758.04	106.65
1758.94	106.755
1759.84	107.333
1760.74	108.137
1761.63	109.351
1762.53	109.412
1763.43	109.777
1764.33	109.547
1765.22	109.437
1766.12	109.594
1767.02	109.661
1767.91	109.985
1768.81	110.379
1769.7	110.629
1770.6	110.933
1771.49	111.299
1772.39	111.378
1773.28	111.11
1774.18	110.997
1775.07	110.045
1775.97	109.798
1776.86	109.496
1777.75	109.512
1778.65	109.518
1779.54	108.753
1780.43	108.07
1781.33	107.811
1782.22	107.314
1783.11	106.899
1784	106.315
1784.89	105.784
1785.79	105.589
1786.68	105.153
1787.57	104.931
1788.46	104.773
1789.35	104.227
1790.24	103.537
1791.13	102.739
1792.02	101.792
1792.91	100.952
1793.8	100.903
1794.69	100.552
1795.58	100.866
1796.47	100.886
1797.36	101.242
1798.25	102.61
1799.13	104.174
