Acq. time (s)=	15
Accumulations=	2
Range (cm-¹)=	600...1800
Windows=	2
Autofocus=	Off
AutoExposure=	On
Spike filter=	Multiple accum.
Delay time (s)=	1
Binning=	1
Readout mode=	Signal
DeNoise=	Standard
ICS correction=	Off
Dark correction=	Off
Inst. Process=	Off
Instrument=	XploRA
Detector=	Syncerity
Objective=	x20LWD
Grating=	1200 gr/mm
Filter=	25%
Laser (nm)=	785 
Slit (µm)=	100 
Hole (µm)=	300 
Laser pol=	None
Raman pol=	None
Output=	Camera
StageXY=	Marzhauser
StageZ=	
X (µm)=	1573.3
Y (µm)=	-540.5
Project=	
Sample=	
Site=	
Title=	To8-T
Remark=	
Date=	14.10.2022 23:02
Acquired=	14.10.2022 23:02:40
600.787	143.727
601.956	147.51
603.126	150.948
604.294	154.232
605.463	157.913
606.631	161.451
607.8	163.166
608.967	166.219
610.135	167.853
611.302	169.817
612.468	170.635
613.635	171.113
614.802	169.327
615.968	169.092
617.133	169.151
618.299	169.402
619.464	169.969
620.629	171.587
621.793	172.892
622.958	173.815
624.121	174.472
625.285	175.476
626.448	176.013
627.612	176.45
628.774	176.924
629.937	177.225
631.099	176.138
632.261	176.905
633.423	177.678
634.584	178.518
635.745	179.094
636.906	179.222
638.066	179.545
639.227	180.24
640.386	180.242
641.546	180.421
642.705	180.748
643.864	181.193
645.023	181.608
646.181	182.167
647.339	182.266
648.497	182.235
649.655	182.084
650.812	182.645
651.969	183.217
653.125	183.592
654.282	184.46
655.438	185.628
656.593	186.218
657.75	186.455
658.905	186.636
660.059	186.66
661.214	186.254
662.368	185.924
663.522	185.233
664.676	185.149
665.83	185.09
666.983	184.406
668.136	183.716
669.288	182.818
670.441	182.357
671.592	182.03
672.744	182.253
673.895	182.525
675.046	183.148
676.197	184.025
677.348	184.905
678.498	186.088
679.648	187.288
680.798	187.882
681.947	188.853
683.096	189.608
684.245	189.657
685.394	190.478
686.542	191.172
687.69	191.972
688.837	192.87
689.984	193.416
691.132	194.154
692.278	188.663
693.425	195.448
694.571	195.852
695.717	196.337
696.863	196.509
698.008	196.452
699.152	196.449
700.298	196.244
701.442	196.546
702.586	196.017
703.73	195.744
704.873	194.865
706.017	193.754
707.16	191.6
708.302	189.929
709.445	188.37
710.586	187.47
711.729	187.148
712.87	186.625
714.012	185.91
715.152	186.237
716.293	187.167
717.433	187.937
718.573	188.504
719.713	189.707
720.853	191.215
721.991	191.622
723.131	191.439
724.269	191.176
725.408	189.786
726.545	188.82
727.683	187.766
728.821	186.696
729.958	185.651
731.095	184.848
732.231	184.32
733.368	183.7
734.503	183.917
735.639	184.671
736.775	186.254
737.91	188.116
739.045	190.678
740.179	192.523
741.313	193.68
742.447	194.854
743.581	195.111
744.714	194.846
745.847	194.381
746.98	193.656
748.113	192.79
749.245	191.688
750.377	190.979
751.509	190.383
752.64	189.686
753.771	189.523
754.902	189.378
756.033	189.17
757.163	189.398
758.293	189.665
759.423	189.666
760.551	189.526
761.681	189.494
762.81	189.276
763.938	189.518
765.066	188.694
766.194	187.41
767.321	186.131
768.449	184.587
769.576	182.687
770.703	180.957
771.83	178.982
772.955	177.647
774.081	176.58
775.207	175.376
776.332	174.841
777.457	174.443
778.582	173.79
779.707	173.75
780.831	173.918
781.954	174.736
783.078	175.59
784.201	175.988
785.324	176.506
786.447	176.383
787.569	175.919
788.691	175.214
789.813	173.825
790.935	172.467
792.056	171.599
793.177	171.713
794.297	171.907
795.418	171.511
796.539	171.426
797.658	170.837
798.777	170.432
799.897	169.407
801.016	168.201
802.134	166.926
803.253	165.707
804.371	164.615
805.489	164.02
806.606	163.5
807.723	162.908
808.84	162.44
809.957	161.439
811.073	160.851
812.19	160.046
813.305	159.962
814.421	160.558
815.536	161.329
816.651	161.606
817.766	161.888
818.88	162.59
819.994	163.217
821.108	163.619
822.221	164.098
823.335	164.402
824.448	164.428
825.56	164.511
826.673	164.464
827.784	164.523
828.897	163.682
830.008	163.295
831.119	163.081
832.23	162.563
833.341	162.297
834.451	161.891
835.561	161.386
836.671	161.054
837.78	160.569
838.89	160.716
839.998	161.22
841.108	161.725
842.216	161.67
843.324	161.586
844.431	161.065
845.539	160.24
846.646	159.644
847.753	158.899
848.859	158.309
849.966	157.854
851.071	157.407
852.178	157.054
853.283	156.558
854.388	156.51
855.494	156.756
856.598	156.87
857.703	156.785
858.806	157.031
859.91	157.5
861.014	157.845
862.116	158.088
863.22	158.714
864.322	159.356
865.425	159.738
866.527	159.65
867.628	159.308
868.73	158.755
869.831	157.733
870.932	156.593
872.032	155.867
873.133	155.093
874.233	154.476
875.333	153.968
876.432	153.815
877.532	153.39
878.631	153.21
879.729	152.922
880.828	152.842
881.926	152.585
883.023	151.897
884.121	151.214
885.218	150.839
886.315	149.863
887.412	148.677
888.508	147.37
889.604	146.298
890.699	145.411
891.795	144.759
892.89	144.173
893.985	143.88
895.08	143.73
896.174	143.857
897.268	144.082
898.362	143.376
899.456	144.033
900.549	144.892
901.642	145.896
902.734	147.26
903.827	147.967
904.919	148.07
906.011	147.771
907.102	147.554
908.193	147.151
909.284	146.592
910.375	145.937
911.465	144.986
912.555	144.128
913.645	143.597
914.734	143.566
915.824	143.716
916.913	143.455
918.001	143.503
919.09	143.31
920.177	143.516
921.266	143.595
922.353	142.704
923.44	142.227
924.527	141.781
925.614	141.09
926.7	140.219
927.786	139.582
928.873	138.724
929.958	137.43
931.043	135.755
932.128	135.483
933.213	134.891
934.297	134.994
935.381	135.175
936.465	135.6
937.549	136.617
938.632	138.306
939.715	139.207
940.798	140.107
941.881	140.272
942.962	139.521
944.044	138.17
945.125	136.85
946.207	134.867
947.288	132.305
948.368	131.29
949.449	130.561
950.529	130.254
951.61	129.71
952.689	129.728
953.769	131.639
954.847	131.53
955.926	130.805
957.004	130.893
958.082	131.095
959.16	131.565
960.238	131.848
961.316	132.036
962.392	132.065
963.469	131.596
964.546	131.027
965.622	130.426
966.698	130.341
967.774	129.371
968.849	128.416
969.924	128.194
970.998	128.422
972.073	128.765
973.148	129.364
974.221	130.54
975.295	132.254
976.369	133.611
977.441	134.075
978.514	134.949
979.587	135.616
980.659	136.391
981.731	136.302
982.802	135.62
983.874	134.593
984.945	133.904
986.016	133.087
987.087	132.387
988.157	131.384
989.227	130.698
990.296	130.724
991.366	130.866
992.435	131.11
993.504	131.2
994.573	131.666
995.641	133.872
996.709	134.779
997.777	134.769
998.844	134.266
999.911	134.103
1000.98	133.45
1002.05	132.627
1003.11	131.115
1004.18	129.572
1005.24	127.954
1006.31	126.917
1007.37	125.975
1008.44	125.273
1009.5	124.887
1010.57	124.535
1011.63	124.641
1012.7	124.368
1013.76	124.048
1014.82	123.895
1015.89	123.773
1016.95	123.921
1018.01	124.189
1019.07	124.163
1020.13	123.816
1021.2	123.282
1022.26	121.607
1023.32	120.649
1024.38	119.583
1025.44	118.586
1026.5	117.834
1027.56	117.249
1028.62	116.772
1029.68	116.196
1030.74	116.127
1031.8	115.765
1032.85	114.774
1033.91	114.546
1034.97	114.847
1036.03	115.745
1037.09	116.651
1038.14	117.739
1039.2	118.609
1040.26	119.095
1041.31	119.182
1042.37	119.131
1043.42	118.808
1044.48	117.531
1045.53	117.373
1046.59	117.216
1047.64	117.08
1048.7	117.802
1049.75	118.465
1050.81	118.338
1051.86	118.175
1052.91	117.86
1053.97	117.352
1055.02	116.8
1056.07	115.898
1057.12	115.354
1058.17	114.756
1059.23	114.144
1060.28	113.985
1061.33	113.627
1062.38	113.742
1063.43	113.45
1064.48	113.11
1065.53	113.087
1066.58	113.375
1067.63	113.745
1068.68	113.841
1069.72	113.804
1070.77	113.344
1071.82	113.302
1072.87	113.193
1073.92	113.276
1074.96	113.305
1076.01	113.191
1077.06	113.196
1078.1	113.546
1079.15	113.789
1080.2	114.155
1081.24	114.278
1082.29	114.395
1083.33	114.021
1084.38	113.427
1085.42	112.93
1086.47	112.25
1087.51	111.119
1088.55	109.753
1089.6	108.803
1090.64	108.372
1091.68	107.607
1092.73	107.226
1093.77	107.386
1094.81	107.507
1095.85	107.578
1096.89	107.064
1097.93	106.642
1098.98	106.171
1100.02	105.916
1101.06	105.726
1102.1	105.276
1103.14	104.602
1104.18	103.65
1105.21	103.101
1106.25	102.821
1107.29	102.609
1108.33	102.349
1109.37	102.416
1110.41	102.996
1111.44	103.349
1112.48	103.444
1113.52	104.111
1114.56	104.703
1115.59	104.465
1116.63	104.752
1117.66	104.842
1118.7	105.28
1119.73	105.487
1120.77	105.842
1121.8	106.397
1122.84	106.731
1123.87	106.803
1124.91	106.703
1125.94	106.773
1126.97	106.588
1128.01	106.321
1129.04	105.552
1130.07	104.86
1131.11	104.574
1132.14	104.331
1133.17	104.305
1134.2	104.354
1135.23	104.467
1136.26	104.648
1137.29	105.109
1138.32	105.526
1139.35	105.996
1140.38	106.655
1141.41	107.217
1142.44	107.775
1143.47	108.009
1144.5	108.025
1145.53	108.428
1146.56	108.575
1147.58	108.468
1148.61	108.703
1149.64	108.761
1150.67	109.144
1151.69	109.405
1152.72	109.944
1153.75	110.696
1154.77	111.286
1155.8	111.702
1156.82	111.982
1157.85	111.961
1158.87	111.726
1159.9	111.744
1160.92	111.018
1161.95	109.685
1162.97	108.27
1163.99	106.938
1165.02	105.551
1166.04	103.954
1167.06	102.498
1168.08	101.129
1169.11	100.15
1170.13	99.3606
1171.15	98.8192
1172.17	98.1055
1173.19	97.8457
1174.21	97.9089
1175.23	98.4069
1176.25	99.3445
1177.27	100.265
1178.29	101.406
1179.31	102.591
1180.33	104.013
1181.35	104.898
1182.37	104.882
1183.39	104.803
1184.4	104.635
1185.42	104.382
1186.44	104.025
1187.46	103.695
1188.47	103.106
1189.49	102.487
1190.51	101.756
1191.52	101.073
1192.54	100.032
1193.55	98.5754
1194.57	97.3581
1195.58	96.8246
1196.6	96.3801
1197.61	95.8742
1198.63	95.6292
1199.64	94.7875
1200.65	94.0542
1201.67	93.6274
1202.68	93.3318
1203.69	93.5026
1204.7	93.7955
1205.72	93.9117
1206.73	94.4125
1207.74	95.1456
1208.75	95.4947
1209.76	95.5525
1210.77	95.722
1211.78	96.4777
1212.79	96.7228
1213.8	96.8017
1214.81	97.6415
1215.82	98.2072
1216.83	98.3388
1217.84	98.2466
1218.85	98.5878
1219.86	97.8158
1220.87	97.4866
1221.87	97.4711
1222.88	96.9469
1223.89	95.9804
1224.9	94.9799
1225.9	94.1804
1226.91	93.295
1227.92	92.5436
1228.92	91.5307
1229.93	90.6545
1230.93	89.8805
1231.94	89.3252
1232.94	88.5114
1233.95	87.5995
1234.95	86.756
1235.95	86.299
1236.96	85.9457
1237.96	85.8289
1238.96	86.2082
1239.97	86.6518
1240.97	86.5998
1241.97	85.9886
1242.97	85.5305
1243.98	85.2318
1244.98	85.0418
1245.98	85.2538
1246.98	85.525
1247.98	85.8779
1248.98	86.12
1249.98	85.7203
1250.98	85.3326
1251.98	85.1583
1252.98	85.0698
1253.98	84.193
1254.98	83.56
1255.98	83.1716
1256.97	82.4924
1257.97	82.1821
1258.97	82.1535
1259.97	82.4039
1260.97	83.0884
1261.96	83.0368
1262.96	83.2529
1263.95	83.3586
1264.95	83.5657
1265.95	84.2602
1266.94	84.7074
1267.94	84.7877
1268.93	84.461
1269.93	84.1666
1270.92	83.8769
1271.92	83.7071
1272.91	83.1055
1273.9	82.726
1274.9	82.5665
1275.89	82.4149
1276.88	82.3665
1277.87	82.7748
1278.87	83.1587
1279.86	83.2145
1280.85	83.2994
1281.84	83.7258
1282.83	84.5452
1283.82	84.9428
1284.81	85.3053
1285.81	85.5617
1286.8	85.8036
1287.79	85.9284
1288.77	86.339
1289.76	86.8644
1290.75	86.9009
1291.74	86.386
1292.73	85.7261
1293.72	85.0189
1294.71	84.1234
1295.69	83.2723
1296.68	82.8576
1297.67	82.3346
1298.65	81.5582
1299.64	81.0993
1300.63	81.0526
1301.61	80.9297
1302.6	80.7018
1303.58	80.5016
1304.57	80.5005
1305.55	80.197
1306.54	80.0844
1307.52	80.0465
1308.51	80.315
1309.49	80.0647
1310.48	79.821
1311.46	79.7921
1312.44	79.6222
1313.42	79.6848
1314.41	79.5396
1315.39	79.7727
1316.37	79.8253
1317.35	80.292
1318.33	81.3888
1319.32	82.5116
1320.3	82.7593
1321.28	83.0481
1322.26	83.4984
1323.24	84.138
1324.22	84.8801
1325.2	85.6726
1326.18	86.5615
1327.15	87.5477
1328.13	88.4857
1329.11	87.6999
1330.09	86.7289
1331.07	85.5354
1332.05	83.8246
1333.02	82.2411
1334	80.3515
1334.98	79.0775
1335.95	77.6491
1336.93	76.7244
1337.91	76.1945
1338.88	76.2832
1339.86	76.4175
1340.83	76.6624
1341.81	77.3603
1342.78	77.7386
1343.76	77.8812
1344.73	77.849
1345.7	77.4083
1346.68	77.1892
1347.65	77.8073
1348.62	78.1217
1349.6	77.9368
1350.57	77.7866
1351.54	77.5925
1352.51	77.5352
1353.49	76.736
1354.46	76.6334
1355.43	76.2361
1356.4	76.0409
1357.37	75.7094
1358.34	75.1282
1359.31	74.8576
1360.28	74.399
1361.25	73.8902
1362.22	73.0135
1363.19	72.2515
1364.16	71.768
1365.12	71.4183
1366.09	71.3506
1367.06	70.8833
1368.03	70.575
1369	70.4432
1369.96	70.5839
1370.93	70.6552
1371.9	70.7374
1372.86	71.46
1373.83	72.0759
1374.79	72.2316
1375.76	72.3187
1376.73	72.5021
1377.69	72.4787
1378.66	72.6815
1379.62	72.8787
1380.58	73.1093
1381.55	72.4737
1382.51	72.0953
1383.48	71.0345
1384.44	69.2906
1385.4	67.0407
1386.36	65.991
1387.33	65.8649
1388.29	66.372
1389.25	67.0677
1390.21	67.436
1391.17	68.5672
1392.13	69.127
1393.09	70.0579
1394.06	70.1603
1395.01	68.0278
1395.97	67.988
1396.93	67.9214
1397.89	68.9492
1398.85	70.1432
1399.81	69.0686
1400.77	66.7496
1401.73	65.5264
1402.69	65.6089
1403.64	66.0351
1404.6	67.1256
1405.56	69.6591
1406.52	71.8363
1407.47	72.1397
1408.43	72.0322
1409.39	71.9523
1410.34	71.7547
1411.3	71.5662
1412.25	71.387
1413.21	70.7068
1414.16	69.8513
1415.12	68.9743
1416.07	68.6654
1417.03	68.224
1417.98	67.9152
1418.93	67.4481
1419.89	66.8689
1420.84	66.6442
1421.79	66.6116
1422.74	66.4335
1423.7	66.3005
1424.65	66.6072
1425.6	67.0148
1426.55	67.4746
1427.5	67.9792
1428.45	68.5176
1429.4	68.4492
1430.35	68.4628
1431.3	68.6191
1432.25	68.9118
1433.2	69.3332
1434.15	69.7456
1435.1	69.6562
1436.05	69.774
1437	69.2538
1437.95	68.8643
1438.89	68.3464
1439.84	67.4528
1440.79	66.5341
1441.74	65.8087
1442.68	65.4121
1443.63	64.9866
1444.58	64.4125
1445.52	63.9896
1446.47	63.8866
1447.41	63.9468
1448.36	63.9779
1449.3	63.9507
1450.25	64.2086
1451.19	64.2104
1452.14	64.1923
1453.08	64.263
1454.03	64.0839
1454.97	63.7168
1455.91	63.3895
1456.85	63.4073
1457.8	63.0153
1458.74	62.4312
1459.68	62.0401
1460.62	61.6196
1461.57	61.1432
1462.51	60.7255
1463.45	60.4332
1464.39	60.5578
1465.33	60.6877
1466.27	60.9528
1467.21	61.1613
1468.15	61.4798
1469.09	62.1656
1470.03	62.3161
1470.97	62.5515
1471.9	63.1769
1472.84	62.8188
1473.78	62.2322
1474.72	61.57
1475.66	60.1635
1476.59	59.2206
1477.53	58.7674
1478.47	58.5427
1479.4	58.7263
1480.34	59.0943
1481.28	59.7594
1482.21	60.6132
1483.15	62.4215
1484.08	62.654
1485.02	63.175
1485.95	63.5291
1486.89	63.767
1487.82	63.673
1488.76	63.5709
1489.69	63.3692
1490.62	62.5736
1491.56	61.9916
1492.49	61.5013
1493.42	61.1364
1494.35	60.967
1495.29	60.7341
1496.22	60.8592
1497.15	61.1642
1498.08	61.4393
1499.01	61.9263
1499.94	62.3894
1500.87	62.4818
1501.8	62.2567
1502.73	62.0038
1503.66	61.6664
1504.59	61.3086
1505.52	60.8187
1506.45	60.328
1507.38	59.7122
1508.31	59.0541
1509.23	58.3981
1510.16	58.0497
1511.09	59.062
1512.02	60.153
1512.94	61.7525
1513.87	63.8593
1514.8	66.0108
1515.72	68.1126
1516.65	68.7815
1517.58	69.6074
1518.5	70.8262
1519.43	72.0539
1520.35	73.0387
1521.28	74.1175
1522.2	75.3367
1523.12	76.3666
1524.05	76.4032
1524.97	74.7305
1525.9	73.3763
1526.82	72.1267
1527.74	71.1291
1528.66	69.7573
1529.59	69.3334
1530.51	69.014
1531.43	68.7294
1532.35	68.236
1533.27	67.0117
1534.19	65.8492
1535.11	64.914
1536.04	64.1808
1536.96	64.2029
1537.88	63.5592
1538.8	62.5852
1539.71	61.813
1540.63	61.246
1541.55	60.5668
1542.47	59.9747
1543.39	59.6212
1544.31	59.2271
1545.23	58.8931
1546.14	58.1695
1547.06	57.2603
1547.98	56.5469
1548.89	56.0027
1549.81	55.5184
1550.73	55.5105
1551.64	55.2627
1552.56	55.011
1553.47	54.6435
1554.39	54.1183
1555.31	53.5273
1556.22	53.0483
1557.13	52.8998
1558.05	53.3906
1558.96	53.7251
1559.88	53.8719
1560.79	54.1038
1561.7	54.3274
1562.62	54.0089
1563.53	53.8399
1564.44	53.379
1565.35	53.2254
1566.27	53.0544
1567.18	52.7255
1568.09	52.3995
1569	51.7919
1569.91	51.2222
1570.82	50.6981
1571.73	50.2289
1572.64	49.8825
1573.55	49.5774
1574.46	49.5762
1575.37	49.8892
1576.28	50.2432
1577.19	50.3551
1578.1	50.3931
1579	50.5143
1579.91	50.6427
1580.82	50.5999
1581.73	50.6312
1582.63	50.4935
1583.54	50.636
1584.45	50.6348
1585.35	50.5672
1586.26	50.435
1587.17	50.3502
1588.07	50.2662
1588.98	50.1577
1589.88	50.027
1590.79	49.7556
1591.69	49.5015
1592.6	49.3432
1593.5	49.1256
1594.4	49.1195
1595.31	49.0832
1596.21	49.0733
1597.11	49.1314
1598.02	49.2866
1598.92	49.5269
1599.82	49.7363
1600.72	49.8609
1601.63	50.1147
1602.53	50.3081
1603.43	50.6921
1604.33	51.0433
1605.23	51.1927
1606.13	50.9724
1607.03	50.5684
1607.93	50.1767
1608.83	49.8466
1609.73	49.6107
1610.63	49.376
1611.53	49.2497
1612.43	49.1973
1613.32	49.0205
1614.22	48.9617
1615.12	49.0784
1616.02	49.1254
1616.92	49.2185
1617.81	49.4211
1618.71	49.5951
1619.61	49.8029
1620.5	49.9764
1621.4	50.1541
1622.29	50.2752
1623.19	50.2367
1624.08	50.1148
1624.98	49.8807
1625.87	49.57
1626.77	49.1858
1627.66	48.834
1628.56	48.7592
1629.45	48.9458
1630.34	48.8847
1631.24	48.3675
1632.13	47.8276
1632.84	47.4537
1633.77	47.2696
1634.7	47.4957
1635.63	47.9987
1636.56	48.1647
1637.49	47.9314
1638.42	47.5057
1639.34	47.1189
1640.27	46.8251
1641.2	46.6706
1642.13	46.6595
1643.05	46.6937
1643.98	46.6929
1644.91	46.5075
1645.83	46.4265
1646.76	46.7306
1647.68	47.1371
1648.61	47.5153
1649.54	47.8089
1650.46	47.9677
1651.39	48.1007
1652.31	48.0813
1653.23	47.9978
1654.16	47.849
1655.08	47.6902
1656.01	46.7031
1656.93	47.1052
1657.85	47.5804
1658.78	47.91
1659.7	47.8462
1660.62	47.5563
1661.54	47.3487
1662.47	47.2708
1663.39	47.0673
1664.31	47.1345
1665.23	47.2019
1666.15	47.3176
1667.07	47.4962
1667.99	47.6756
1668.92	47.8461
1669.84	47.9652
1670.76	48.0764
1671.68	48.0942
1672.6	47.7667
1673.52	47.4446
1674.43	46.6628
1675.35	45.9185
1676.27	45.4154
1677.19	45.0502
1678.11	44.6439
1679.03	42.8651
1679.95	42.5594
1680.86	42.4426
1681.78	42.5821
1682.7	42.961
1683.61	43.587
1684.53	44.4863
1685.45	45.4573
1686.36	45.6425
1687.28	45.7898
1688.2	46.0181
1689.11	46.2079
1690.03	46.4128
1690.94	46.6154
1691.86	46.823
1692.77	46.9958
1693.69	46.6152
1694.6	46.004
1695.52	45.3929
1696.43	44.9036
1697.34	44.4344
1698.26	44.0463
1699.17	43.6837
1700.08	43.3946
1700.99	43.1208
1701.91	42.9022
1702.82	42.6699
1703.73	42.7167
1704.64	42.837
1705.55	43.0159
1706.47	43.2008
1707.38	43.4386
1708.29	43.6544
1709.2	43.9004
1710.11	44.1405
1711.02	44.3363
1711.93	44.5523
1712.84	44.3376
1713.75	44.1171
1714.66	43.7793
1715.57	43.4471
1716.48	43.0806
1717.39	42.7498
1718.29	42.2458
1719.2	42.1867
1720.11	42.2095
1721.02	42.5644
1721.93	42.831
1722.83	43.1381
1723.74	43.4157
1724.65	43.965
1725.55	44.0849
1726.46	44.1664
1727.37	44.1987
1728.27	44.0156
1729.18	43.8615
1730.08	43.71
1730.99	43.357
1731.89	42.8286
1732.8	42.3023
1733.7	41.7949
1734.61	41.2796
1735.51	40.759
1736.42	40.2971
1737.32	39.9183
1738.22	39.5184
1739.13	39.3138
1740.03	39.1377
1740.93	39.1643
1741.83	39.2142
1742.74	39.2021
1743.64	39.2753
1744.54	39.3816
1745.44	39.4969
1746.34	39.6428
1747.24	39.8024
1748.15	40.052
1749.05	40.3282
1749.95	40.5981
1750.85	40.8935
1751.75	40.8018
1752.65	40.7395
1753.55	40.6845
1754.45	40.6464
1755.35	40.6114
1756.25	40.5241
1757.14	40.641
1758.04	40.8256
1758.94	40.9917
1759.84	40.8095
1760.74	40.5841
1761.63	40.3478
1762.53	40.1264
1763.43	40.0521
1764.33	40.0212
1765.22	40.0143
1766.12	40.3185
1767.02	40.5202
1767.91	40.7688
1768.81	41.0558
1769.7	40.6754
1770.6	40.297
1771.49	39.9144
1772.39	39.4996
1773.28	39.1448
1774.18	38.839
1775.07	38.4858
1775.97	38.1559
1776.86	38.1028
1777.75	38.0499
1778.65	38.0783
1779.54	38.1432
1780.43	38.2415
1781.33	38.3168
1782.22	38.4584
1783.11	38.6107
1784	38.7556
1784.89	38.9186
1785.79	39.0955
1786.68	39.2661
1787.57	39.4674
1788.46	39.6474
1789.35	39.5314
1790.24	39.6263
1791.13	39.5761
1792.02	39.5781
1792.91	39.5844
1793.8	39.5133
1794.69	39.4057
1795.58	39.3338
1796.47	39.1779
1797.36	39.0559
1798.25	38.844
1799.13	38.6657
