Acq. time (s)=	15
Accumulations=	2
Range (cm-¹)=	600...1800
Windows=	2
Autofocus=	Off
AutoExposure=	On
Spike filter=	Multiple accum.
Delay time (s)=	1
Binning=	1
Readout mode=	Signal
DeNoise=	Standard
ICS correction=	Off
Dark correction=	Off
Inst. Process=	Off
Instrument=	XploRA
Detector=	Syncerity
Objective=	x20LWD
Grating=	1200 gr/mm
Filter=	25%
Laser (nm)=	785 
Slit (µm)=	100 
Hole (µm)=	300 
Laser pol=	None
Raman pol=	None
Output=	Camera
StageXY=	Marzhauser
StageZ=	
X (µm)=	-5863.8
Y (µm)=	-63
Project=	
Sample=	
Site=	
Title=	To2-T
Remark=	
Date=	14.10.2022 19:12
Acquired=	14.10.2022 19:12:38
600.787	585.649
601.956	595.462
603.126	605.182
604.294	613.678
605.463	623.722
606.631	632.693
607.8	640.616
608.967	648.169
610.135	655.947
611.302	663.605
612.468	670.97
613.635	677.945
614.802	684.405
615.968	690.174
617.133	695.562
618.299	700.48
619.464	704.473
620.629	707.779
621.793	710.312
622.958	712.309
624.121	714.024
625.285	715.389
626.448	716.591
627.612	717.779
628.774	719.712
629.937	722.803
631.099	724.754
632.261	726.523
633.423	729.458
634.584	732.089
635.745	733.621
636.906	736.734
638.066	738.891
639.227	740.756
640.386	742.964
641.546	745.012
642.705	745.589
643.864	745.503
645.023	745.523
646.181	745.93
647.339	745.848
648.497	745.539
649.655	745.413
650.812	745.424
651.969	746.474
653.125	747.528
654.282	747.712
655.438	747.163
656.593	746.461
657.75	746.511
658.905	747.71
660.059	750.096
661.214	752.414
662.368	755.344
663.522	757.473
664.676	758.543
665.83	758.815
666.983	758.434
668.136	758.049
669.288	757.411
670.441	756.419
671.592	754.658
672.744	754.715
673.895	754.807
675.046	754.676
676.197	754.927
677.348	755.453
678.498	755.835
679.648	756.265
680.798	756.659
681.947	757.216
683.096	758.014
684.245	758.893
685.394	759.956
686.542	761.475
687.69	762.945
688.837	764.134
689.984	763.702
691.132	762.882
692.278	761.815
693.425	761.037
694.571	760.567
695.717	760.138
696.863	760.067
698.008	759.093
699.152	752.6
700.298	751.528
701.442	751.04
702.586	751.702
703.73	753.456
704.873	754.376
706.017	755.182
707.16	755.592
708.302	758.557
709.445	758.075
710.586	757.055
711.729	754.495
712.87	750.682
714.012	742.879
715.152	738.068
716.293	734.394
717.433	730.512
718.573	729.098
719.713	727.289
720.853	732.604
721.991	732.416
723.131	731.865
724.269	730.96
725.408	729.958
726.545	728.994
727.683	727.679
728.821	726.36
729.958	726.027
731.095	725.245
732.231	723.689
733.368	723.288
734.503	724.599
735.639	727.006
736.775	732.795
737.91	738.041
739.045	743.084
740.179	747.804
741.313	754.049
742.447	762.941
743.581	770.517
744.714	779.579
745.847	778.434
746.98	763.25
748.113	724.491
749.245	722.998
750.377	723.139
751.509	724.052
752.64	725.113
753.771	725.765
754.902	725.366
756.033	725.139
757.163	722.527
758.293	718.108
759.423	713.655
760.551	706.52
761.681	700.537
762.81	696.006
763.938	692.243
765.066	688.999
766.194	685.719
767.321	684.281
768.449	681.832
769.576	678.724
770.703	675.429
771.83	672.012
772.955	669.419
774.081	668.268
775.207	666.124
776.332	663.801
777.457	661.257
778.582	658.716
779.707	656.191
780.831	653.538
781.954	650.807
783.078	648.362
784.201	646.512
785.324	644.874
786.447	643.124
787.569	641.997
788.691	641.81
789.813	641.089
790.935	639.882
792.056	638.423
793.177	637.445
794.297	637.191
795.418	636.859
796.539	636.328
797.658	634.625
798.777	632.804
799.897	630.858
801.016	628.947
802.134	626.924
803.253	624.902
804.371	623.096
805.489	621.435
806.606	620.043
807.723	618.922
808.84	618.375
809.957	618.176
811.073	618.334
812.19	618.694
813.305	619.564
814.421	618.392
815.536	617.9
816.651	615.283
817.766	611.314
818.88	607.906
819.994	604.706
821.108	601.002
822.221	599.459
823.335	601.725
824.448	604.547
825.56	608.47
826.673	613.239
827.784	617.066
828.897	618.547
830.008	618.512
831.119	610.389
832.23	607.652
833.341	604.789
834.451	602.247
835.561	600.083
836.671	598.43
837.78	597.188
838.89	596.298
839.998	595.923
841.108	596.13
842.216	596.362
843.324	596.448
844.431	596.567
845.539	597.502
846.646	597.581
847.753	597.046
848.859	595.934
849.966	594.441
851.071	592.277
852.178	589.591
853.283	586.367
854.388	582.592
855.494	578.502
856.598	574.693
857.703	571.995
858.806	569.338
859.91	566.813
861.014	564.465
862.116	562.539
863.22	560.879
864.322	559.804
865.425	559.077
866.527	558.563
867.628	558.336
868.73	558.217
869.831	558.005
870.932	558.099
872.032	558.724
873.133	558.043
874.233	556.606
875.333	554.907
876.432	553.331
877.532	551.983
878.631	550.829
879.729	549.699
880.828	547.048
881.926	545.343
883.023	544.025
884.121	543.174
885.218	542.831
886.315	542.677
887.412	542.706
888.508	543.521
889.604	544.651
890.699	544.956
891.795	544.959
892.89	544.645
893.985	543.996
895.08	542.834
896.174	540.874
897.268	540.646
898.362	544.505
899.456	542.984
900.549	541.644
901.642	539.602
902.734	537.391
903.827	535.27
904.919	531.149
906.011	532.053
907.102	533.755
908.193	536.764
909.284	540.586
910.375	545.125
911.465	547.435
912.555	548.172
913.645	548.978
914.734	546.107
915.824	543.356
916.913	542.086
918.001	540.671
919.09	539.478
920.177	537.945
921.266	535.915
922.353	533.515
923.44	530.489
924.527	527.106
925.614	523.497
926.7	519.368
927.786	514.915
928.873	510.355
929.958	506.407
931.043	502.763
932.128	499.467
933.213	496.659
934.297	493.9
935.381	491.34
936.465	490.539
937.549	489.955
938.632	489.413
939.715	488.669
940.798	487.692
941.881	486.584
942.962	485.289
944.044	483.606
945.125	481.654
946.207	479.64
947.288	477.554
948.368	475.516
949.449	474.047
950.529	472.427
951.61	471.04
952.689	470.01
953.769	469.347
954.847	469.041
955.926	469.637
957.004	470.53
958.082	471.51
959.16	471.826
960.238	472.526
961.316	473.04
962.392	473.293
963.469	473.28
964.546	472.896
965.622	472.031
966.698	470.785
967.774	469.051
968.849	467.151
969.924	465.28
970.998	464.31
972.073	463.594
973.148	463.61
974.221	464.428
975.295	465.653
976.369	467.189
977.441	469.139
978.514	471.36
979.587	473.534
980.659	476.212
981.731	478.879
982.802	481.316
983.874	483.139
984.945	484.634
986.016	485.856
987.087	486.805
988.157	487.345
989.227	487.494
990.296	487.568
991.366	487.447
992.435	485.722
993.504	483.947
994.573	482.266
995.641	480.17
996.709	477.346
997.777	474.449
998.844	471.543
999.911	468.916
1000.98	466.3
1002.05	463.94
1003.11	465.704
1004.18	463.434
1005.24	460.69
1006.31	457.679
1007.37	454.466
1008.44	451.12
1009.5	447.799
1010.57	444.745
1011.63	441.744
1012.7	438.259
1013.76	434.64
1014.82	432.279
1015.89	430.556
1016.95	429.308
1018.01	428.056
1019.07	426.056
1020.13	424.312
1021.2	422.945
1022.26	422.047
1023.32	421.239
1024.38	420.935
1025.44	420.335
1026.5	418.682
1027.56	417.03
1028.62	415.508
1029.68	414.181
1030.74	412.193
1031.8	410.293
1032.85	408.756
1033.91	407.777
1034.97	407.017
1036.03	406.622
1037.09	406.583
1038.14	406.789
1039.2	406.415
1040.26	407.936
1041.31	409.17
1042.37	410.602
1043.42	412.255
1044.48	414.039
1045.53	415.225
1046.59	415.461
1047.64	415.55
1048.7	415.408
1049.75	415.04
1050.81	414.407
1051.86	413.444
1052.91	411.288
1053.97	407.904
1055.02	403.425
1056.07	398.148
1057.12	393.688
1058.17	389.366
1059.23	387.179
1060.28	386.075
1061.33	386.225
1062.38	387.932
1063.43	389.174
1064.48	394.139
1065.53	395.979
1066.58	397.854
1067.63	398.985
1068.68	395.771
1069.72	395.651
1070.77	395.301
1071.82	394.64
1072.87	393.907
1073.92	392.969
1074.96	392.03
1076.01	391.191
1077.06	390.528
1078.1	390.081
1079.15	387.265
1080.2	384.895
1081.24	382.784
1082.29	381.052
1083.33	379.7
1084.38	379.043
1085.42	379.131
1086.47	377.684
1087.51	375.642
1088.55	373.66
1089.6	371.607
1090.64	369.644
1091.68	367.704
1092.73	366.045
1093.77	364.928
1094.81	364.493
1095.85	364.739
1096.89	365.779
1097.93	366.689
1098.98	367.301
1100.02	367.864
1101.06	368.429
1102.1	368.94
1103.14	369.12
1104.18	369.654
1105.21	370.653
1106.25	371.139
1107.29	370.597
1108.33	371.142
1109.37	371.857
1110.41	372.515
1111.44	372.982
1112.48	373.546
1113.52	374.564
1114.56	378.907
1115.59	375.96
1116.63	372.56
1117.66	368.962
1118.7	365.426
1119.73	362.454
1120.77	357.583
1121.8	353.089
1122.84	348.821
1123.87	345.35
1124.91	343.69
1125.94	342.158
1126.97	341.445
1128.01	342.418
1129.04	344.084
1130.07	346.803
1131.11	349.874
1132.14	353.321
1133.17	357.009
1134.2	360.69
1135.23	364.539
1136.26	368.382
1137.29	372.155
1138.32	375.266
1139.35	378.051
1140.38	380.368
1141.41	381.992
1142.44	382.097
1143.47	382.072
1144.5	382.79
1145.53	383.695
1146.56	376.773
1147.58	379.668
1148.61	384.845
1149.64	388.19
1150.67	391.177
1151.69	394.477
1152.72	397.218
1153.75	399.032
1154.77	400.205
1155.8	400.069
1156.82	398.218
1157.85	395.676
1158.87	391.816
1159.9	386.462
1160.92	379.773
1161.95	374.152
1162.97	368.666
1163.99	363.256
1165.02	357.555
1166.04	352.249
1167.06	347.598
1168.08	344.372
1169.11	342.115
1170.13	340.542
1171.15	339.592
1172.17	339.326
1173.19	339.552
1174.21	339.998
1175.23	340.814
1176.25	341.833
1177.27	343.013
1178.29	344.604
1179.31	346.529
1180.33	348.903
1181.35	351.628
1182.37	354.755
1183.39	357.748
1184.4	359.621
1185.42	360.906
1186.44	361.461
1187.46	361.691
1188.47	361.566
1189.49	360.736
1190.51	358.237
1191.52	354.97
1192.54	350.618
1193.55	345.452
1194.57	340.441
1195.58	336.063
1196.6	332.618
1197.61	328.324
1198.63	323.659
1199.64	320.56
1200.65	318.462
1201.67	317.185
1202.68	316.58
1203.69	316.323
1204.7	316.799
1205.72	317.775
1206.73	319.258
1207.74	321.147
1208.75	323.14
1209.76	324.9
1210.77	326.032
1211.78	327.071
1212.79	327.712
1213.8	327.934
1214.81	327.153
1215.82	327.359
1216.83	327.512
1217.84	327.631
1218.85	327.2
1219.86	326.432
1220.87	325.628
1221.87	324.99
1222.88	324.352
1223.89	324.634
1224.9	324.846
1225.9	324.871
1226.91	324.65
1227.92	323.624
1228.92	322.309
1229.93	320.148
1230.93	316.744
1231.94	313.57
1232.94	310.44
1233.95	307.595
1234.95	304.852
1235.95	300.89
1236.96	296.432
1237.96	292.684
1238.96	289.018
1239.97	286.053
1240.97	283.864
1241.97	282.78
1242.97	282.467
1243.98	282.625
1244.98	282.766
1245.98	283.076
1246.98	283.325
1247.98	283.5
1248.98	283.494
1249.98	283.355
1250.98	282.204
1251.98	281.145
1252.98	280.244
1253.98	279.829
1254.98	279.213
1255.98	278.958
1256.97	278.929
1257.97	279.143
1258.97	279.479
1259.97	279.833
1260.97	280.135
1261.96	280.003
1262.96	279.795
1263.95	279.201
1264.95	278.024
1265.95	276.781
1266.94	275.485
1267.94	274.707
1268.93	273.866
1269.93	272.716
1270.92	271.513
1271.92	270.613
1272.91	269.942
1273.9	269.781
1274.9	269.961
1275.89	270.364
1276.88	270.933
1277.87	271.671
1278.87	272.506
1279.86	273.217
1280.85	274.188
1281.84	274.833
1282.83	274.04
1283.82	272.362
1284.81	274.084
1285.81	276.498
1286.8	279.122
1287.79	279.714
1288.77	278.615
1289.76	276.865
1290.75	274.533
1291.74	271.661
1292.73	268.301
1293.72	264.34
1294.71	259.934
1295.69	257.042
1296.68	256.786
1297.67	257.536
1298.65	256.503
1299.64	256.04
1300.63	256.251
1301.61	257.398
1302.6	257.521
1303.58	257.441
1304.57	256.967
1305.55	255.838
1306.54	254.498
1307.52	253.094
1308.51	252.036
1309.49	250.691
1310.48	249.482
1311.46	248.609
1312.44	248.226
1313.42	248.543
1314.41	249.303
1315.39	250.682
1316.37	251.027
1317.35	252.672
1318.33	254.734
1319.32	257.619
1320.3	260.928
1321.28	264.586
1322.26	268.019
1323.24	270.91
1324.22	273.317
1325.2	274.832
1326.18	275.972
1327.15	276.558
1328.13	276.331
1329.11	275.097
1330.09	272.426
1331.07	268.914
1332.05	263.423
1333.02	257.669
1334	252.989
1334.98	248.73
1335.95	244.949
1336.93	241.716
1337.91	239.108
1338.88	237.038
1339.86	235.648
1340.83	234.772
1341.81	234.465
1342.78	234.684
1343.76	235.541
1344.73	236.771
1345.7	237.861
1346.68	238.782
1347.65	239.254
1348.62	239.456
1349.6	239.31
1350.57	238.749
1351.54	238.072
1352.51	237.301
1353.49	237.265
1354.46	237.083
1355.43	236.197
1356.4	235.294
1357.37	234.264
1358.34	233.238
1359.31	232.098
1360.28	229.448
1361.25	227.609
1362.22	226.343
1363.19	225.38
1364.16	224.3
1365.12	223.403
1366.09	222.529
1367.06	221.168
1368.03	220.111
1369	220.028
1369.96	219.279
1370.93	218.678
1371.9	218.791
1372.86	219.281
1373.83	219.841
1374.79	220.384
1375.76	220.878
1376.73	221.154
1377.69	221.396
1378.66	221.665
1379.62	222.256
1380.58	222.959
1381.55	223.431
1382.51	223.341
1383.48	223.105
1384.44	222.621
1385.4	222.044
1386.36	221.708
1387.33	221.208
1388.29	220.605
1389.25	220.013
1390.21	219.504
1391.17	219.757
1392.13	219.702
1393.09	219.391
1394.06	218.136
1395.01	216.677
1395.97	215.157
1396.93	213.669
1397.89	212.181
1398.85	210.829
1399.81	209.464
1400.77	208.192
1401.73	207.033
1402.69	205.824
1403.64	204.515
1404.6	203.12
1405.56	200.976
1406.52	198.573
1407.47	197.028
1408.43	196.004
1409.39	195.62
1410.34	195.801
1411.3	196.696
1412.25	197.269
1413.21	198.758
1414.16	200.249
1415.12	201.558
1416.07	202.609
1417.03	203.415
1417.98	203.728
1418.93	203.266
1419.89	203.501
1420.84	203.935
1421.79	204.475
1422.74	204.043
1423.7	203.553
1424.65	203.046
1425.6	202.551
1426.55	202.453
1427.5	202.353
1428.45	202.319
1429.4	202.439
1430.35	202.628
1431.3	203.033
1432.25	203.582
1433.2	204.205
1434.15	205.064
1435.1	206.026
1436.05	207.269
1437	208.464
1437.95	209.619
1438.89	209.98
1439.84	210.152
1440.79	209.773
1441.74	209.018
1442.68	208.083
1443.63	206.393
1444.58	204.468
1445.52	202.513
1446.47	201.138
1447.41	201.237
1448.36	200.144
1449.3	199.1
1450.25	198.207
1451.19	197.339
1452.14	196.936
1453.08	196.247
1454.03	195.449
1454.97	194.745
1455.91	193.91
1456.85	193.165
1457.8	192.362
1458.74	190.34
1459.68	191.192
1460.62	190.763
1461.57	190.483
1462.51	190.252
1463.45	189.107
1464.39	187.804
1465.33	186.652
1466.27	185.553
1467.21	184.458
1468.15	183.474
1469.09	182.641
1470.03	181.985
1470.97	181.896
1471.9	182.437
1472.84	181.856
1473.78	181.249
1474.72	180.788
1475.66	180.576
1476.59	180.431
1477.53	180.309
1478.47	180.705
1479.4	181.166
1480.34	181.762
1481.28	182.318
1482.21	182.73
1483.15	182.319
1484.08	182.06
1485.02	181.903
1485.95	181.801
1486.89	181.806
1487.82	181.842
1488.76	181.942
1489.69	182.078
1490.62	181.872
1491.56	181.684
1492.49	181.438
1493.42	181.494
1494.35	181.654
1495.29	181.857
1496.22	182.021
1497.15	181.914
1498.08	180.842
1499.01	179.889
1499.94	178.977
1500.87	178.553
1501.8	178.314
1502.73	178.117
1503.66	177.927
1504.59	177.69
1505.52	177.371
1506.45	177.342
1507.38	177.669
1508.31	178.755
1509.23	180.511
1510.16	183.279
1511.09	186.721
1512.02	190.657
1512.94	194.977
1513.87	197.29
1514.8	200.208
1515.72	204.107
1516.65	209.828
1517.58	216.071
1518.5	222.256
1519.43	228.679
1520.35	235.351
1521.28	242.361
1522.2	247.959
1523.12	252.124
1524.05	254.786
1524.97	255.94
1525.9	255.694
1526.82	251.42
1527.74	248.127
1528.66	244.391
1529.59	239.924
1530.51	235.214
1531.43	230.294
1532.35	224.809
1533.27	220.12
1534.19	215.889
1535.11	212.197
1536.04	208.828
1536.96	205.576
1537.88	202.304
1538.8	198.917
1539.71	195.924
1540.63	193.195
1541.55	190.713
1542.47	188.584
1543.39	186.765
1544.31	185.257
1545.23	183.882
1546.14	182.884
1547.06	182.263
1547.98	181.905
1548.89	181.832
1549.81	182.041
1550.73	182.071
1551.64	181.881
1552.56	181.254
1553.47	180.383
1554.39	179.041
1555.31	177.418
1556.22	175.6
1557.13	173.2
1558.05	170.427
1558.96	167.99
1559.88	165.483
1560.79	162.686
1561.7	159.999
1562.62	157.573
1563.53	155.34
1564.44	153.517
1565.35	151.973
1566.27	150.837
1567.18	149.994
1568.09	149.421
1569	149.162
1569.91	149.26
1570.82	149.609
1571.73	149.988
1572.64	150.396
1573.55	150.515
1574.46	150.527
1575.37	150.39
1576.28	150.196
1577.19	150.089
1578.1	150.02
1579	149.821
1579.91	149.361
1580.82	148.895
1581.73	148.687
1582.63	148.777
1583.54	148.936
1584.45	148.437
1585.35	148.064
1586.26	147.82
1587.17	147.963
1588.07	148.147
1588.98	148.128
1589.88	148.294
1590.79	148.572
1591.69	148.899
1592.6	149.226
1593.5	149.616
1594.4	149.961
1595.31	150.303
1596.21	150.533
1597.11	150.874
1598.02	151.444
1598.92	151.493
1599.82	151.107
1600.72	150.624
1601.63	150.167
1602.53	149.805
1603.43	149.609
1604.33	151.706
1605.23	154.63
1606.13	154.651
1607.03	154.748
1607.93	154.999
1608.83	155.418
1609.73	155.642
1610.63	155.285
1611.53	154.801
1612.43	154.142
1613.32	153.384
1614.22	152.449
1615.12	151.44
1616.02	150.431
1616.92	149.492
1617.81	148.519
1618.71	147.609
1619.61	146.81
1620.5	146.059
1621.4	145.368
1622.29	144.732
1623.19	143.939
1624.08	143.074
1624.98	142.577
1625.87	142.624
1626.77	142.932
1627.66	143.334
1628.56	143.552
1629.45	143.502
1630.34	143.495
1631.24	143.564
1632.13	143.771
1632.84	143.942
1633.77	144.094
1634.7	143.675
1635.63	143.46
1636.56	143.685
1637.49	143.955
1638.42	143.766
1639.34	142.421
1640.27	140.707
1641.2	138.951
1642.13	136.933
1643.05	135.928
1643.98	135.82
1644.91	136.548
1645.83	138.673
1646.76	141.145
1647.68	140.925
1648.61	140.731
1649.54	140.424
1650.46	139.716
1651.39	137.969
1652.31	136.573
1653.23	135.509
1654.16	134.795
1655.08	134.621
1656.01	133.894
1656.93	133.207
1657.85	131.877
1658.78	132.002
1659.7	132.061
1660.62	133.494
1661.54	132.54
1662.47	133.046
1663.39	133.857
1664.31	134.788
1665.23	135.827
1666.15	136.864
1667.07	137.453
1667.99	136.976
1668.92	136.377
1669.84	135.649
1670.76	134.91
1671.68	134.155
1672.6	133.378
1673.52	132.569
1674.43	131.356
1675.35	130.191
1676.27	129.265
1677.19	130.231
1678.11	129.733
1679.03	129.385
1679.95	130.121
1680.86	130.653
1681.78	130.603
1682.7	131.226
1683.61	131.362
1684.53	130.999
1685.45	130.435
1686.36	129.792
1687.28	129.109
1688.2	128.391
1689.11	127.748
1690.03	127.046
1690.94	126.473
1691.86	125.856
1692.77	125.331
1693.69	124.776
1694.6	124.254
1695.52	123.705
1696.43	123.085
1697.34	122.464
1698.26	121.632
1699.17	121.472
1700.08	121.642
1700.99	121.883
1701.91	122.182
1702.82	122.469
1703.73	122.695
1704.64	122.617
1705.55	122.593
1706.47	122.382
1707.38	122.189
1708.29	121.95
1709.2	121.634
1710.11	121.181
1711.02	120.726
1711.93	120.15
1712.84	119.569
1713.75	118.981
1714.66	118.338
1715.57	117.819
1716.48	117.342
1717.39	117.146
1718.29	116.987
1719.2	116.988
1720.11	116.785
1721.02	116.438
1721.93	116.301
1722.83	116.293
1723.74	116.385
1724.65	116.893
1725.55	117.379
1726.46	117.935
1727.37	118.347
1728.27	118.767
1729.18	118.973
1730.08	118.983
1730.99	118.925
1731.89	118.762
1732.8	118.346
1733.7	117.818
1734.61	117.223
1735.51	116.597
1736.42	115.944
1737.32	115.322
1738.22	114.662
1739.13	114.11
1740.03	113.56
1740.93	112.997
1741.83	112.529
1742.74	112.031
1743.64	111.633
1744.54	111.24
1745.44	110.916
1746.34	110.605
1747.24	110.345
1748.15	110.085
1749.05	109.825
1749.95	109.595
1750.85	109.267
1751.75	108.933
1752.65	108.333
1753.55	107.703
1754.45	107.29
1755.35	107.047
1756.25	107.738
1757.14	108.449
1758.04	109.22
1758.94	110.386
1759.84	111.45
1760.74	112.331
1761.63	111.08
1762.53	108.554
1763.43	107.057
1764.33	106.746
1765.22	108.977
1766.12	110.503
1767.02	110.745
1767.91	109.869
1768.81	107.711
1769.7	105.8
1770.6	105.909
1771.49	104.399
1772.39	103.659
1773.28	103.119
1774.18	102.913
1775.07	102.971
1775.97	103.358
1776.86	103.862
1777.75	104.369
1778.65	104.878
1779.54	104.895
1780.43	104.795
1781.33	104.671
1782.22	104.52
1783.11	104.512
1784	104.42
1784.89	104.328
1785.79	104.238
1786.68	104.136
1787.57	104.074
1788.46	103.998
1789.35	103.999
1790.24	104.022
1791.13	104.117
1792.02	104.302
1792.91	104.455
1793.8	104.657
1794.69	104.775
1795.58	104.886
1796.47	103.602
1797.36	101.47
1798.25	98.6429
1799.13	93.8608
