Acq. time (s)=	15
Accumulations=	2
Range (cm-¹)=	600...1800
Windows=	2
Autofocus=	Off
AutoExposure=	On
Spike filter=	Multiple accum.
Delay time (s)=	1
Binning=	1
Readout mode=	Signal
DeNoise=	Standard
ICS correction=	Off
Dark correction=	Off
Inst. Process=	Off
Instrument=	XploRA
Detector=	Syncerity
Objective=	x20LWD
Grating=	1200 gr/mm
Filter=	25%
Laser (nm)=	785 
Slit (µm)=	100 
Hole (µm)=	300 
Laser pol=	None
Raman pol=	None
Output=	Camera
StageXY=	Marzhauser
StageZ=	
X (µm)=	6425.4
Y (µm)=	7935.4
Project=	
Sample=	
Site=	
Title=	To12-T
Remark=	
Date=	15.10.2022 19:10
Acquired=	15.10.2022 19:10:03
600.787	802.955
601.956	803.738
603.126	813.562
604.294	821.04
605.463	832.366
606.631	845.967
607.8	856.024
608.967	865.257
610.135	874.704
611.302	883.445
612.468	893.054
613.635	901.017
614.802	908.686
615.968	914.777
617.133	920.917
618.299	927.057
619.464	932.85
620.629	938.933
621.793	947.532
622.958	952.503
624.121	956.92
625.285	960.821
626.448	964.498
627.612	966.771
628.774	967.296
629.937	969.195
631.099	969.946
632.261	972.997
633.423	977.1
634.584	981.576
635.745	987.052
636.906	991.643
638.066	996.997
639.227	1002.97
640.386	1009.91
641.546	1018.36
642.705	1026.4
643.864	1034.11
645.023	1039.3
646.181	1043.6
647.339	1048.15
648.497	1052.26
649.655	1055.51
650.812	1057.9
651.969	1059.33
653.125	1061.76
654.282	1063.7
655.438	1066.07
656.593	1066.11
657.75	1067.99
658.905	1073.91
660.059	1078.86
661.214	1084.34
662.368	1089.98
663.522	1096.41
664.676	1103.33
665.83	1110.69
666.983	1117.68
668.136	1125.75
669.288	1134.25
670.441	1143.53
671.592	1151.72
672.744	1159.27
673.895	1164.3
675.046	1162.97
676.197	1165.06
677.348	1168.66
678.498	1172.69
679.648	1175.9
680.798	1179.27
681.947	1182.66
683.096	1186.1
684.245	1188.8
685.394	1193.29
686.542	1198.83
687.69	1203.17
688.837	1207.8
689.984	1212.39
691.132	1217.08
692.278	1220.91
693.425	1223.85
694.571	1226.66
695.717	1229.82
696.863	1231.73
698.008	1231.98
699.152	1231.72
700.298	1232.2
701.442	1232.14
702.586	1231.16
703.73	1230.67
704.873	1231.38
706.017	1230.91
707.16	1229.2
708.302	1229
709.445	1228.95
710.586	1226.69
711.729	1224.81
712.87	1223.08
714.012	1223.04
715.152	1222.5
716.293	1223.31
717.433	1224.63
718.573	1225.92
719.713	1226.66
720.853	1228.71
721.991	1230.91
723.131	1231.56
724.269	1231.59
725.408	1232.56
726.545	1235.52
727.683	1238.95
728.821	1242.59
729.958	1246.36
731.095	1250.34
732.231	1254.44
733.368	1257.81
734.503	1261.78
735.639	1266.61
736.775	1270.46
737.91	1276.22
739.045	1280.14
740.179	1283.41
741.313	1284.99
742.447	1284.62
743.581	1283.88
744.714	1281.05
745.847	1276.86
746.98	1270.33
748.113	1266.2
749.245	1261.21
750.377	1258.1
751.509	1254.65
752.64	1252.6
753.771	1255.23
754.902	1252.39
756.033	1247.17
757.163	1241.82
758.293	1234.84
759.423	1225.02
760.551	1218.15
761.681	1212.68
762.81	1207.43
763.938	1203.61
765.066	1198.75
766.194	1200.58
767.321	1197.57
768.449	1186.33
769.576	1179.08
770.703	1176.11
771.83	1173.42
772.955	1172.04
774.081	1168.9
775.207	1167.56
776.332	1164.47
777.457	1160.33
778.582	1155.96
779.707	1151.74
780.831	1145.28
781.954	1139.8
783.078	1131.14
784.201	1127.02
785.324	1125.9
786.447	1124.24
787.569	1123.71
788.691	1122.66
789.813	1123.78
790.935	1122.33
792.056	1120.46
793.177	1119.55
794.297	1118.36
795.418	1116.64
796.539	1114.54
797.658	1112.89
798.777	1110.82
799.897	1108.18
801.016	1104.56
802.134	1101.57
803.253	1098.89
804.371	1095.77
805.489	1093.48
806.606	1090.01
807.723	1087.6
808.84	1085.6
809.957	1082.16
811.073	1080.32
812.19	1079.29
813.305	1078.56
814.421	1078.54
815.536	1079.42
816.651	1079.58
817.766	1078.49
818.88	1078.68
819.994	1078.32
821.108	1077.68
822.221	1075.54
823.335	1072.44
824.448	1069.86
825.56	1064.95
826.673	1060.84
827.784	1056.66
828.897	1054.78
830.008	1052.97
831.119	1051.37
832.23	1050.99
833.341	1050.43
834.451	1050.4
835.561	1050.14
836.671	1048.61
837.78	1046.22
838.89	1045.3
839.998	1044.53
841.108	1043.7
842.216	1042.28
843.324	1041.94
844.431	1042.27
845.539	1041.86
846.646	1040.82
847.753	1040.47
848.859	1041.72
849.966	1041.97
851.071	1043.03
852.178	1041.61
853.283	1038.05
854.388	1033.18
855.494	1029.29
856.598	1025.76
857.703	1025.34
858.806	1022.08
859.91	1013.85
861.014	1004.69
862.116	997.524
863.22	991.544
864.322	988.051
865.425	985.05
866.527	982.87
867.628	986.753
868.73	986.435
869.831	984.297
870.932	982.808
872.032	979.706
873.133	975.743
874.233	973.348
875.333	971.935
876.432	970.452
877.532	968.955
878.631	968.221
879.729	966.598
880.828	965.034
881.926	963.191
883.023	962.032
884.121	961.881
885.218	962.365
886.315	962.258
887.412	962.174
888.508	962.411
889.604	961.987
890.699	962.088
891.795	961.853
892.89	961.022
893.985	960.027
895.08	958.616
896.174	956.394
897.268	954.484
898.362	953.172
899.456	952.547
900.549	952.474
901.642	951.062
902.734	951.245
903.827	952.622
904.919	952.487
906.011	954.119
907.102	956.006
908.193	957.604
909.284	959.791
910.375	961.874
911.465	963.417
912.555	963.729
913.645	962.295
914.734	959.442
915.824	955.992
916.913	951.567
918.001	946.748
919.09	940.834
920.177	934.169
921.266	926.647
922.353	919.313
923.44	913.523
924.527	908.234
925.614	903.405
926.7	897.589
927.786	892.998
928.873	888.675
929.958	885.811
931.043	883.756
932.128	880.947
933.213	879.008
934.297	877.595
935.381	877.178
936.465	877.22
937.549	876.153
938.632	876.191
939.715	876.771
940.798	877.11
941.881	877.301
942.962	878.549
944.044	879.217
945.125	880.028
946.207	879.684
947.288	878.402
948.368	876.107
949.449	871.778
950.529	866.558
951.61	860.81
952.689	854.427
953.769	848.143
954.847	843.109
955.926	838.436
957.004	833.993
958.082	829.705
959.16	827.311
960.238	826.991
961.316	829.169
962.392	830.12
963.469	833.567
964.546	835.529
965.622	837.59
966.698	839.285
967.774	840.558
968.849	841.466
969.924	843.392
970.998	844.487
972.073	846.568
973.148	848.452
974.221	850.936
975.295	852.687
976.369	854.657
977.441	857.497
978.514	860.532
979.587	863.945
980.659	867.495
981.731	870.964
982.802	875.038
983.874	876.478
984.945	877.548
986.016	876.862
987.087	876.106
988.157	873.721
989.227	869.152
990.296	862.397
991.366	857.297
992.435	851.574
993.504	846.718
994.573	843.868
995.641	843.477
996.709	844.054
997.777	847.667
998.844	862.952
999.911	864.284
1000.98	863.032
1002.05	860.228
1003.11	847.506
1004.18	839.315
1005.24	833.899
1006.31	829.323
1007.37	823.024
1008.44	817.338
1009.5	813.827
1010.57	808.69
1011.63	803.838
1012.7	799.402
1013.76	796.257
1014.82	795.105
1015.89	791.703
1016.95	786.997
1018.01	782.361
1019.07	778.186
1020.13	774.408
1021.2	770.629
1022.26	766.166
1023.32	762.56
1024.38	759.37
1025.44	757.68
1026.5	756.95
1027.56	758.011
1028.62	753.618
1029.68	736.93
1030.74	739.358
1031.8	734.772
1032.85	732.401
1033.91	737.45
1034.97	744.067
1036.03	744.946
1037.09	747.292
1038.14	740.829
1039.2	741.042
1040.26	744.486
1041.31	746.603
1042.37	748.457
1043.42	748.749
1044.48	748.452
1045.53	747.84
1046.59	747.722
1047.64	746.694
1048.7	745.528
1049.75	743.589
1050.81	740.671
1051.86	738.067
1052.91	733.802
1053.97	731.07
1055.02	728.423
1056.07	724.678
1057.12	719.699
1058.17	716.354
1059.23	713.294
1060.28	712.306
1061.33	712.109
1062.38	711.328
1063.43	710.473
1064.48	710.122
1065.53	710.29
1066.58	711.179
1067.63	711.932
1068.68	711.005
1069.72	709.844
1070.77	708.033
1071.82	705.324
1072.87	701.105
1073.92	699.006
1074.96	696.978
1076.01	695.578
1077.06	693.824
1078.1	692.461
1079.15	690.881
1080.2	690.75
1081.24	690.243
1082.29	689.546
1083.33	689.788
1084.38	689.433
1085.42	689.343
1086.47	688.772
1087.51	687.646
1088.55	685.125
1089.6	681.887
1090.64	679.605
1091.68	676.97
1092.73	674.902
1093.77	673.017
1094.81	671.677
1095.85	670.715
1096.89	668.972
1097.93	667.961
1098.98	667.565
1100.02	667.096
1101.06	667.407
1102.1	668.042
1103.14	668.677
1104.18	668.649
1105.21	668.211
1106.25	668.818
1107.29	670.846
1108.33	672.202
1109.37	673.431
1110.41	673.498
1111.44	673.916
1112.48	672.903
1113.52	671.653
1114.56	669.334
1115.59	667.75
1116.63	664.748
1117.66	662.333
1118.7	660.844
1119.73	659.119
1120.77	656.804
1121.8	655.65
1122.84	654.391
1123.87	652.26
1124.91	650.044
1125.94	649.089
1126.97	647.751
1128.01	646.098
1129.04	646.636
1130.07	647.076
1131.11	648.545
1132.14	651.269
1133.17	652.754
1134.2	656.051
1135.23	660.56
1136.26	666.206
1137.29	673.297
1138.32	679.445
1139.35	689.152
1140.38	693.274
1141.41	696.404
1142.44	699.088
1143.47	700.444
1144.5	701.208
1145.53	697.455
1146.56	699.207
1147.58	699.637
1148.61	701.113
1149.64	705.393
1150.67	710.5
1151.69	714.29
1152.72	720.954
1153.75	727.414
1154.77	733.544
1155.8	741.27
1156.82	744.375
1157.85	741.677
1158.87	734.366
1159.9	725.998
1160.92	705.116
1161.95	691.111
1162.97	674.971
1163.99	661.139
1165.02	649.173
1166.04	643.95
1167.06	640.13
1168.08	641.753
1169.11	635.576
1170.13	633.598
1171.15	632.829
1172.17	633.428
1173.19	634.716
1174.21	636.181
1175.23	638.34
1176.25	641.72
1177.27	644.526
1178.29	649.534
1179.31	653.775
1180.33	657.983
1181.35	661.114
1182.37	662.715
1183.39	663.854
1184.4	663.268
1185.42	662.669
1186.44	659.967
1187.46	656.02
1188.47	649.21
1189.49	644.871
1190.51	641.003
1191.52	634.944
1192.54	628.82
1193.55	622.153
1194.57	615.455
1195.58	609.5
1196.6	606.386
1197.61	601.514
1198.63	597.926
1199.64	591.447
1200.65	589.763
1201.67	588.979
1202.68	589.492
1203.69	593.496
1204.7	595.501
1205.72	596.759
1206.73	596.883
1207.74	596.448
1208.75	595.722
1209.76	590.164
1210.77	589.566
1211.78	589.209
1212.79	590.92
1213.8	590.52
1214.81	591.941
1215.82	593.419
1216.83	595.312
1217.84	599.129
1218.85	599.848
1219.86	600.729
1220.87	600.751
1221.87	600.943
1222.88	600.654
1223.89	599.792
1224.9	597.999
1225.9	595.433
1226.91	590.912
1227.92	587.574
1228.92	584.077
1229.93	579.277
1230.93	574.692
1231.94	569.958
1232.94	565.919
1233.95	560.956
1234.95	555.938
1235.95	551.74
1236.96	547.823
1237.96	543.799
1238.96	540.664
1239.97	538.153
1240.97	535.617
1241.97	533.97
1242.97	532.857
1243.98	532.09
1244.98	530.912
1245.98	530.131
1246.98	529.403
1247.98	528.561
1248.98	526.636
1249.98	524.742
1250.98	522.737
1251.98	519.986
1252.98	518.179
1253.98	517.706
1254.98	517.563
1255.98	517.75
1256.97	518.354
1257.97	519.841
1258.97	521.745
1259.97	525.11
1260.97	524.251
1261.96	523.658
1262.96	523.238
1263.95	522.808
1264.95	523.107
1265.95	524.012
1266.94	523.684
1267.94	518.461
1268.93	512.657
1269.93	506.675
1270.92	502.293
1271.92	498.395
1272.91	495.05
1273.9	493.565
1274.9	493.323
1275.89	494.093
1276.88	495.959
1277.87	501.628
1278.87	507.549
1279.86	510.513
1280.85	513.004
1281.84	516.35
1282.83	517.148
1283.82	518.569
1284.81	518.768
1285.81	522.189
1286.8	521.232
1287.79	518.685
1288.77	514.859
1289.76	511.37
1290.75	508.345
1291.74	504.959
1292.73	498.241
1293.72	495.002
1294.71	491.025
1295.69	489.443
1296.68	489.009
1297.67	488.682
1298.65	488.881
1299.64	488.203
1300.63	487.619
1301.61	486.85
1302.6	485.728
1303.58	485.37
1304.57	485.169
1305.55	484.015
1306.54	481.805
1307.52	480.265
1308.51	479.31
1309.49	479.413
1310.48	479.905
1311.46	479.787
1312.44	476.351
1313.42	474.279
1314.41	470.324
1315.39	470.265
1316.37	470.044
1317.35	473.653
1318.33	475.983
1319.32	482.751
1320.3	489.147
1321.28	501.686
1322.26	510.515
1323.24	522.168
1324.22	530.164
1325.2	537.402
1326.18	537.641
1327.15	535.348
1328.13	531.717
1329.11	525.208
1330.09	517.363
1331.07	502.51
1332.05	493.021
1333.02	484.111
1334	475.281
1334.98	468.085
1335.95	466.926
1336.93	462.873
1337.91	460.59
1338.88	458.085
1339.86	457.041
1340.83	456.089
1341.81	455.045
1342.78	455.169
1343.76	455.772
1344.73	453.227
1345.7	450.555
1346.68	448.174
1347.65	445.589
1348.62	443.35
1349.6	440.369
1350.57	438.257
1351.54	436.752
1352.51	436.448
1353.49	436.568
1354.46	436.266
1355.43	435.749
1356.4	435.53
1357.37	435.031
1358.34	435.087
1359.31	435.349
1360.28	434.502
1361.25	432.667
1362.22	430.938
1363.19	429.956
1364.16	428.487
1365.12	427.169
1366.09	425.209
1367.06	422.973
1368.03	421.063
1369	419.28
1369.96	418.097
1370.93	417.805
1371.9	417.601
1372.86	418.119
1373.83	418.597
1374.79	420.341
1375.76	422.647
1376.73	424.1
1377.69	423.293
1378.66	421.996
1379.62	421.535
1380.58	421.801
1381.55	422.214
1382.51	422.675
1383.48	423.752
1384.44	423.73
1385.4	422.743
1386.36	421.834
1387.33	420.445
1388.29	418.633
1389.25	416.666
1390.21	414.614
1391.17	412.548
1392.13	409.554
1393.09	406.615
1394.06	404.731
1395.01	403.053
1395.97	401.253
1396.93	399.388
1397.89	397.408
1398.85	395.868
1399.81	392.409
1400.77	389.09
1401.73	386.234
1402.69	384.585
1403.64	382.809
1404.6	381.172
1405.56	380.281
1406.52	379.891
1407.47	378.5
1408.43	375.896
1409.39	374.587
1410.34	373.058
1411.3	372.057
1412.25	372.268
1413.21	373.447
1414.16	378.376
1415.12	380.518
1416.07	381.476
1417.03	382.099
1417.98	382.614
1418.93	383.677
1419.89	384.162
1420.84	384.001
1421.79	383.685
1422.74	381.843
1423.7	380.843
1424.65	379.43
1425.6	379.216
1426.55	378.864
1427.5	379.474
1428.45	381.026
1429.4	382.837
1430.35	385.529
1431.3	386.954
1432.25	388.561
1433.2	389.796
1434.15	392.143
1435.1	394.052
1436.05	395.403
1437	396.064
1437.95	396.871
1438.89	397.148
1439.84	396.849
1440.79	396.543
1441.74	395.789
1442.68	394.584
1443.63	393.314
1444.58	392.442
1445.52	390.677
1446.47	387.995
1447.41	385.057
1448.36	382.374
1449.3	379.614
1450.25	377.29
1451.19	375.892
1452.14	373.832
1453.08	371.898
1454.03	370.082
1454.97	368.414
1455.91	366.311
1456.85	364.382
1457.8	362.514
1458.74	360.457
1459.68	358.203
1460.62	356.058
1461.57	354.425
1462.51	353.393
1463.45	352.514
1464.39	351.301
1465.33	350.344
1466.27	349.45
1467.21	348.841
1468.15	347.76
1469.09	346.788
1470.03	345.913
1470.97	345.843
1471.9	346.771
1472.84	346.85
1473.78	346.17
1474.72	346.566
1475.66	348.143
1476.59	349.628
1477.53	351.403
1478.47	353.892
1479.4	355.576
1480.34	355.682
1481.28	355.732
1482.21	355.748
1483.15	354.262
1484.08	352.358
1485.02	351.794
1485.95	350.904
1486.89	351.239
1487.82	352.047
1488.76	352.827
1489.69	353.279
1490.62	354.006
1491.56	355.157
1492.49	356.39
1493.42	358.159
1494.35	354.968
1495.29	352.674
1496.22	351.55
1497.15	350.659
1498.08	347.813
1499.01	345.494
1499.94	344.715
1500.87	344.112
1501.8	344.017
1502.73	344.141
1503.66	344.168
1504.59	345.067
1505.52	346.399
1506.45	348.202
1507.38	350.24
1508.31	352.594
1509.23	355.281
1510.16	358.795
1511.09	363.094
1512.02	368.941
1512.94	375.383
1513.87	383.64
1514.8	393.639
1515.72	404.161
1516.65	414.163
1517.58	422.493
1518.5	430.999
1519.43	439.533
1520.35	447.992
1521.28	455.647
1522.2	461.378
1523.12	465.968
1524.05	469.042
1524.97	469.122
1525.9	468.965
1526.82	466.975
1527.74	462.321
1528.66	457.358
1529.59	451.473
1530.51	444.753
1531.43	437.6
1532.35	431.027
1533.27	422.589
1534.19	413.832
1535.11	405.411
1536.04	396.991
1536.96	387.889
1537.88	377.663
1538.8	366.847
1539.71	357.739
1540.63	350.008
1541.55	343.659
1542.47	339.589
1543.39	336.665
1544.31	335.542
1545.23	334.833
1546.14	334.752
1547.06	335.631
1547.98	335.95
1548.89	333.952
1549.81	332.049
1550.73	329.512
1551.64	326.907
1552.56	324.022
1553.47	319.93
1554.39	315.52
1555.31	311.356
1556.22	307.476
1557.13	302.96
1558.05	299.376
1558.96	295.889
1559.88	291.381
1560.79	287.44
1561.7	284.242
1562.62	281.857
1563.53	280.25
1564.44	278.643
1565.35	277.651
1566.27	276.226
1567.18	275.058
1568.09	273.558
1569	271.645
1569.91	269.726
1570.82	268.225
1571.73	266.649
1572.64	265.369
1573.55	264.072
1574.46	262.63
1575.37	261.59
1576.28	260.435
1577.19	259.277
1578.1	257.711
1579	256.59
1579.91	256.024
1580.82	255.388
1581.73	254.997
1582.63	255.064
1583.54	255.879
1584.45	256.405
1585.35	256.646
1586.26	256.816
1587.17	256.963
1588.07	257.349
1588.98	257.717
1589.88	257.571
1590.79	257.522
1591.69	257.631
1592.6	258.268
1593.5	258.985
1594.4	259.496
1595.31	259.551
1596.21	259.781
1597.11	260.316
1598.02	261.031
1598.92	261.872
1599.82	262.784
1600.72	263.751
1601.63	264.773
1602.53	265.594
1603.43	266.217
1604.33	266.936
1605.23	267.499
1606.13	267.688
1607.03	267.425
1607.93	267.061
1608.83	266.564
1609.73	265.661
1610.63	264.145
1611.53	262.76
1612.43	261.667
1613.32	260.531
1614.22	259.535
1615.12	258.633
1616.02	258.017
1616.92	257.434
1617.81	256.913
1618.71	256.709
1619.61	256.909
1620.5	256.19
1621.4	255.378
1622.29	254.914
1623.19	254.691
1624.08	254.466
1624.98	254.438
1625.87	254.407
1626.77	254.231
1627.66	254.358
1628.56	254.567
1629.45	254.232
1630.34	253.776
1631.24	253.675
1632.13	254.254
1632.84	254.627
1633.77	255.063
1634.7	254.624
1635.63	254.337
1636.56	254.593
1637.49	255.586
1638.42	256.464
1639.34	257.197
1640.27	257.261
1641.2	257.045
1642.13	256.457
1643.05	255.636
1643.98	254.678
1644.91	253.736
1645.83	252.656
1646.76	251.648
1647.68	250.744
1648.61	249.75
1649.54	248.472
1650.46	247.861
1651.39	247.67
1652.31	248.118
1653.23	249.112
1654.16	250.104
1655.08	250.852
1656.01	251.133
1656.93	251.622
1657.85	251.775
1658.78	251.486
1659.7	250.328
1660.62	249.014
1661.54	247.374
1662.47	246.129
1663.39	245.283
1664.31	245.296
1665.23	246.04
1666.15	247.249
1667.07	248.44
1667.99	249.186
1668.92	247.855
1669.84	245.588
1670.76	243.413
1671.68	241.57
1672.6	240.1
1673.52	239.105
1674.43	238.209
1675.35	238.228
1676.27	238.57
1677.19	238.844
1678.11	240.086
1679.03	241.952
1679.95	243.608
1680.86	245.728
1681.78	247.234
1682.7	247.73
1683.61	247.742
1684.53	247.428
1685.45	246.343
1686.36	245.437
1687.28	244.217
1688.2	241.834
1689.11	239.019
1690.03	236.373
1690.94	233.874
1691.86	231.579
1692.77	229.577
1693.69	227.887
1694.6	226.46
1695.52	225.367
1696.43	224.511
1697.34	224.078
1698.26	223.858
1699.17	223.98
1700.08	224.33
1700.99	224.758
1701.91	224.519
1702.82	223.46
1703.73	222.335
1704.64	221.266
1705.55	220.271
1706.47	219.247
1707.38	218.459
1708.29	217.941
1709.2	217.682
1710.11	217.733
1711.02	218.355
1711.93	219.239
1712.84	220.391
1713.75	220.954
1714.66	221.358
1715.57	221.72
1716.48	222.041
1717.39	223.068
1718.29	222.7
1719.2	220.264
1720.11	218.233
1721.02	216.571
1721.93	215.124
1722.83	213.365
1723.74	212.253
1724.65	211.469
1725.55	210.703
1726.46	210.023
1727.37	209.961
1728.27	210.313
1729.18	211.083
1730.08	211.491
1730.99	212.693
1731.89	212.524
1732.8	211.872
1733.7	211.346
1734.61	210.706
1735.51	210.142
1736.42	209.563
1737.32	208.976
1738.22	208.459
1739.13	207.909
1740.03	207.508
1740.93	207.095
1741.83	206.931
1742.74	206.886
1743.64	206.936
1744.54	207.37
1745.44	207.638
1746.34	207.754
1747.24	207.741
1748.15	207.821
1749.05	207.983
1749.95	207.946
1750.85	207.635
1751.75	207.107
1752.65	206.168
1753.55	205.156
1754.45	203.759
1755.35	202.222
1756.25	200.455
1757.14	198.754
1758.04	197.307
1758.94	196.126
1759.84	195.341
1760.74	194.813
1761.63	194.931
1762.53	195.648
1763.43	196.817
1764.33	198.196
1765.22	199.531
1766.12	201.012
1767.02	202.614
1767.91	203.011
1768.81	202.058
1769.7	201.332
1770.6	201.396
1771.49	201.683
1772.39	201.824
1773.28	202.538
1774.18	202.91
1775.07	202.07
1775.97	200.478
1776.86	198.616
1777.75	196.639
1778.65	195.473
1779.54	194.334
1780.43	193.812
1781.33	193.452
1782.22	193.164
1783.11	192.949
1784	192.735
1784.89	192.499
1785.79	192.26
1786.68	192.078
1787.57	191.834
1788.46	191.709
1789.35	191.445
1790.24	191.05
1791.13	190.346
1792.02	190.144
1792.91	190.162
1793.8	189.767
1794.69	189.408
1795.58	188.946
1796.47	188.791
1797.36	187.711
1798.25	185.555
1799.13	184.059
