Acq. time (s)=	15
Accumulations=	2
Range (cm-¹)=	600...1800
Windows=	2
Autofocus=	Off
AutoExposure=	On
Spike filter=	Multiple accum.
Delay time (s)=	1
Binning=	1
Readout mode=	Signal
DeNoise=	Standard
ICS correction=	Off
Dark correction=	Off
Inst. Process=	Off
Instrument=	XploRA
Detector=	Syncerity
Objective=	x20LWD
Grating=	1200 gr/mm
Filter=	25%
Laser (nm)=	785 
Slit (µm)=	100 
Hole (µm)=	300 
Laser pol=	None
Raman pol=	None
Output=	Camera
StageXY=	Marzhauser
StageZ=	
X (µm)=	-1394.3
Y (µm)=	-8955.8
Project=	
Sample=	
Site=	
Title=	To1-T
Remark=	
Date=	14.10.2022 18:23
Acquired=	14.10.2022 18:23:40
600.787	2098.63
601.956	2102.82
603.126	2106.46
604.294	2111.27
605.463	2123.2
606.631	2143.88
607.8	2168.55
608.967	2192.19
610.135	2209.84
611.302	2221.11
612.468	2231.74
613.635	2242.28
614.802	2251.81
615.968	2260.8
617.133	2268.74
618.299	2276.13
619.464	2282.77
620.629	2288.99
621.793	2295.83
622.958	2301.62
624.121	2307.34
625.285	2312.94
626.448	2318.9
627.612	2324.09
628.774	2329.12
629.937	2331.78
631.099	2332.24
632.261	2332.52
633.423	2332.54
634.584	2332.36
635.745	2332
636.906	2331.42
638.066	2330.63
639.227	2329.96
640.386	2328.97
641.546	2327.84
642.705	2326.57
643.864	2325.18
645.023	2323.42
646.181	2321.45
647.339	2319.2
648.497	2316.74
649.655	2314.13
650.812	2311.54
651.969	2308.89
653.125	2306.74
654.282	2306.48
655.438	2309.14
656.593	2310.88
657.75	2313.15
658.905	2317.24
660.059	2318.9
661.214	2319.74
662.368	2320.56
663.522	2321.23
664.676	2321.99
665.83	2322.88
666.983	2323.87
668.136	2325.13
669.288	2326.76
670.441	2328.09
671.592	2329.71
672.744	2331.44
673.895	2333.42
675.046	2335.7
676.197	2339.05
677.348	2343.65
678.498	2347.63
679.648	2348.63
680.798	2345.14
681.947	2344.61
683.096	2346.08
684.245	2348.78
685.394	2353.32
686.542	2351.08
687.69	2349.74
688.837	2350.29
689.984	2351.14
691.132	2352.08
692.278	2352.27
693.425	2347.41
694.571	2343.63
695.717	2337.4
696.863	2333.48
698.008	2330.32
699.152	2327.03
700.298	2322.74
701.442	2318.55
702.586	2314.54
703.73	2309.58
704.873	2304.96
706.017	2301.43
707.16	2297.72
708.302	2296.11
709.445	2295.45
710.586	2293
711.729	2287.99
712.87	2284.13
714.012	2277.54
715.152	2270.46
716.293	2264.59
717.433	2259.68
718.573	2255.41
719.713	2251.58
720.853	2248.48
721.991	2244.92
723.131	2243.25
724.269	2241.04
725.408	2241.65
726.545	2241.02
727.683	2241.29
728.821	2240.28
729.958	2237.94
731.095	2239.73
732.231	2236.96
733.368	2243.2
734.503	2252.12
735.639	2263.06
736.775	2274.61
737.91	2279.87
739.045	2289.84
740.179	2300.67
741.313	2311.61
742.447	2316.9
743.581	2334.03
744.714	2352.91
745.847	2339.69
746.98	2322.28
748.113	2301.7
749.245	2294.36
750.377	2283.94
751.509	2268.81
752.64	2252.81
753.771	2235.86
754.902	2218.96
756.033	2203.55
757.163	2190.88
758.293	2175.11
759.423	2159.96
760.551	2145.78
761.681	2133.75
762.81	2125.75
763.938	2120.09
765.066	2115.59
766.194	2112.28
767.321	2109.37
768.449	2104.88
769.576	2093.36
770.703	2082.1
771.83	2072.71
772.955	2066.44
774.081	2059.34
775.207	2051.59
776.332	2044.05
777.457	2036.37
778.582	2027.62
779.707	2019.64
780.831	2008.88
781.954	2000.33
783.078	1992.51
784.201	1984.97
785.324	1977.53
786.447	1970.85
787.569	1965.7
788.691	1962.16
789.813	1959.72
790.935	1957.49
792.056	1956.19
793.177	1954.32
794.297	1952.82
795.418	1952.97
796.539	1951.22
797.658	1949.22
798.777	1949.54
799.897	1947.34
801.016	1943.39
802.134	1936.31
803.253	1927.21
804.371	1917.81
805.489	1910.24
806.606	1901.86
807.723	1893.8
808.84	1876.41
809.957	1848.12
811.073	1839.43
812.19	1842.09
813.305	1865.58
814.421	1877.41
815.536	1878.47
816.651	1881.24
817.766	1884.23
818.88	1886.53
819.994	1880.55
821.108	1872.22
822.221	1864.89
823.335	1859.64
824.448	1854.32
825.56	1847.75
826.673	1844.45
827.784	1839.77
828.897	1835.67
830.008	1830.13
831.119	1826.32
832.23	1823.45
833.341	1822.48
834.451	1822.13
835.561	1823.69
836.671	1825.58
837.78	1827.75
838.89	1827.45
839.998	1825.64
841.108	1823.47
842.216	1822.33
843.324	1821.05
844.431	1815.66
845.539	1813.84
846.646	1811.19
847.753	1807.41
848.859	1802.09
849.966	1797.46
851.071	1793.34
852.178	1788.08
853.283	1782.61
854.388	1777.29
855.494	1770.75
856.598	1764.88
857.703	1758.86
858.806	1752.1
859.91	1745.44
861.014	1739.43
862.116	1734.24
863.22	1729.78
864.322	1724.01
865.425	1719.62
866.527	1712.53
867.628	1709.34
868.73	1703.72
869.831	1695.82
870.932	1688.31
872.032	1681.07
873.133	1675.3
874.233	1668.37
875.333	1662.02
876.432	1657.55
877.532	1652.53
878.631	1649.38
879.729	1645.42
880.828	1642.68
881.926	1641.83
883.023	1641.54
884.121	1641.72
885.218	1641.25
886.315	1639.92
887.412	1638.67
888.508	1637.9
889.604	1638.26
890.699	1638.37
891.795	1637.37
892.89	1634.35
893.985	1630.49
895.08	1626.24
896.174	1622.16
897.268	1618.5
898.362	1615.27
899.456	1612.42
900.549	1609.26
901.642	1608.38
902.734	1608.9
903.827	1610.92
904.919	1611.99
906.011	1614.01
907.102	1616.56
908.193	1620.91
909.284	1626.29
910.375	1632.12
911.465	1639.63
912.555	1645.1
913.645	1650.54
914.734	1652.03
915.824	1651.69
916.913	1649.85
918.001	1646.01
919.09	1640.83
920.177	1633.47
921.266	1624.7
922.353	1615.77
923.44	1605.31
924.527	1591.95
925.614	1574.02
926.7	1556.31
927.786	1542.25
928.873	1530.31
929.958	1519.96
931.043	1511.34
932.128	1502.99
933.213	1495.98
934.297	1491.1
935.381	1482.66
936.465	1477.08
937.549	1473.42
938.632	1469.42
939.715	1465.77
940.798	1463.63
941.881	1462.07
942.962	1462.13
944.044	1462.29
945.125	1463.92
946.207	1465.26
947.288	1465.28
948.368	1464.41
949.449	1462.31
950.529	1460.21
951.61	1457.16
952.689	1453.65
953.769	1449.65
954.847	1447.01
955.926	1442.98
957.004	1439.64
958.082	1437.74
959.16	1435.58
960.238	1432.32
961.316	1429.92
962.392	1429.35
963.469	1428.98
964.546	1429.23
965.622	1428.2
966.698	1427.21
967.774	1425.81
968.849	1424.71
969.924	1424.52
970.998	1422.85
972.073	1422.8
973.148	1423.91
974.221	1425.32
975.295	1427.78
976.369	1429.85
977.441	1433.4
978.514	1438.22
979.587	1443.81
980.659	1448.19
981.731	1452.8
982.802	1456.93
983.874	1460.11
984.945	1462.25
986.016	1463
987.087	1463.2
988.157	1459.43
989.227	1455.65
990.296	1451.01
991.366	1446.61
992.435	1442.1
993.504	1438.39
994.573	1436.52
995.641	1434.7
996.709	1432.04
997.777	1430.42
998.844	1430.8
999.911	1430.63
1000.98	1432.39
1002.05	1430.93
1003.11	1429.85
1004.18	1426.54
1005.24	1421.18
1006.31	1413.64
1007.37	1403.28
1008.44	1393.23
1009.5	1379.9
1010.57	1366.81
1011.63	1351.48
1012.7	1336.85
1013.76	1324.33
1014.82	1313.22
1015.89	1304.08
1016.95	1295.01
1018.01	1287.06
1019.07	1279.67
1020.13	1273.16
1021.2	1265.54
1022.26	1259.85
1023.32	1255.44
1024.38	1252.34
1025.44	1249.5
1026.5	1246.24
1027.56	1243.43
1028.62	1241.3
1029.68	1238.25
1030.74	1237.7
1031.8	1236.93
1032.85	1236.7
1033.91	1236.59
1034.97	1237.54
1036.03	1234.97
1037.09	1230.96
1038.14	1228.57
1039.2	1226.52
1040.26	1224.96
1041.31	1225.42
1042.37	1227.31
1043.42	1230.26
1044.48	1232.84
1045.53	1235.07
1046.59	1235.28
1047.64	1234.94
1048.7	1233.65
1049.75	1231.53
1050.81	1228.48
1051.86	1222.95
1052.91	1212.01
1053.97	1205.43
1055.02	1198.61
1056.07	1192.69
1057.12	1188.32
1058.17	1182.83
1059.23	1179.37
1060.28	1178.52
1061.33	1177.49
1062.38	1177.57
1063.43	1178.31
1064.48	1179.88
1065.53	1182.77
1066.58	1185.77
1067.63	1187.73
1068.68	1192.78
1069.72	1189.92
1070.77	1185.47
1071.82	1177.77
1072.87	1169.83
1073.92	1160.5
1074.96	1153.08
1076.01	1144.4
1077.06	1136.12
1078.1	1129.16
1079.15	1122.44
1080.2	1117.14
1081.24	1118.26
1082.29	1114.99
1083.33	1111.91
1084.38	1106.8
1085.42	1105.01
1086.47	1103.4
1087.51	1102.23
1088.55	1102.82
1089.6	1103.57
1090.64	1104.26
1091.68	1102.8
1092.73	1101.96
1093.77	1100.44
1094.81	1098.58
1095.85	1097.3
1096.89	1096.13
1097.93	1094.36
1098.98	1091.48
1100.02	1088.82
1101.06	1086.64
1102.1	1085.94
1103.14	1086.31
1104.18	1085.2
1105.21	1085.47
1106.25	1087.46
1107.29	1089.1
1108.33	1091.43
1109.37	1095.73
1110.41	1098.52
1111.44	1100.07
1112.48	1100.18
1113.52	1100.6
1114.56	1098.16
1115.59	1096.21
1116.63	1092.85
1117.66	1088.6
1118.7	1084.59
1119.73	1079.18
1120.77	1074.75
1121.8	1069.75
1122.84	1066.28
1123.87	1062.78
1124.91	1060.92
1125.94	1060.97
1126.97	1060.56
1128.01	1060.84
1129.04	1066.61
1130.07	1067.07
1131.11	1064.42
1132.14	1062.02
1133.17	1063.78
1134.2	1065.61
1135.23	1069.68
1136.26	1077.1
1137.29	1087.24
1138.32	1101.3
1139.35	1122.42
1140.38	1134.51
1141.41	1145.74
1142.44	1155.44
1143.47	1161.18
1144.5	1168.83
1145.53	1168.33
1146.56	1169.68
1147.58	1174.09
1148.61	1176.56
1149.64	1173.75
1150.67	1183.81
1151.69	1190.71
1152.72	1205.33
1153.75	1222.71
1154.77	1242.28
1155.8	1260.51
1156.82	1270.92
1157.85	1268.32
1158.87	1246.49
1159.9	1227.23
1160.92	1206.06
1161.95	1174.61
1162.97	1138.82
1163.99	1107.01
1165.02	1080.71
1166.04	1058.12
1167.06	1043.57
1168.08	1034.16
1169.11	1028.62
1170.13	1023.14
1171.15	1020.52
1172.17	1018.36
1173.19	1019.07
1174.21	1022.39
1175.23	1027
1176.25	1034.26
1177.27	1044.07
1178.29	1054.31
1179.31	1063.17
1180.33	1071.13
1181.35	1077.15
1182.37	1082.88
1183.39	1088.32
1184.4	1092.67
1185.42	1095.35
1186.44	1095.38
1187.46	1092.13
1188.47	1086.13
1189.49	1078.5
1190.51	1068.79
1191.52	1058
1192.54	1045.32
1193.55	1033.04
1194.57	1021.07
1195.58	1008.46
1196.6	995.2
1197.61	982.591
1198.63	972.318
1199.64	962.568
1200.65	955.076
1201.67	950.792
1202.68	949.036
1203.69	948.506
1204.7	949.407
1205.72	950.934
1206.73	952.492
1207.74	954.651
1208.75	956.522
1209.76	958.687
1210.77	961.441
1211.78	963.055
1212.79	964.167
1213.8	966.054
1214.81	965.608
1215.82	965.612
1216.83	964.584
1217.84	964.444
1218.85	964.46
1219.86	964.828
1220.87	966.589
1221.87	968.911
1222.88	970.564
1223.89	971.313
1224.9	971.439
1225.9	973.071
1226.91	975.077
1227.92	973.655
1228.92	969.692
1229.93	964.088
1230.93	955.822
1231.94	945.78
1232.94	936.482
1233.95	925.546
1234.95	914.725
1235.95	904.732
1236.96	895.339
1237.96	885.774
1238.96	876.72
1239.97	869.896
1240.97	863.033
1241.97	857.696
1242.97	854.734
1243.98	848.581
1244.98	843.171
1245.98	838.666
1246.98	834.908
1247.98	831.387
1248.98	828.325
1249.98	826.284
1250.98	823.453
1251.98	821.37
1252.98	819.324
1253.98	818.737
1254.98	819.819
1255.98	821.632
1256.97	822.944
1257.97	825.282
1258.97	829.407
1259.97	831.74
1260.97	831.249
1261.96	831.538
1262.96	831.31
1263.95	830.566
1264.95	829.041
1265.95	826.759
1266.94	821.855
1267.94	815.972
1268.93	809.962
1269.93	803.534
1270.92	798.317
1271.92	794.56
1272.91	791.146
1273.9	790.406
1274.9	789.204
1275.89	789.787
1276.88	791.544
1277.87	795.329
1278.87	800.319
1279.86	804.95
1280.85	810.065
1281.84	814.945
1282.83	819.656
1283.82	822.5
1284.81	824.052
1285.81	824.269
1286.8	823.199
1287.79	822.646
1288.77	819.718
1289.76	817.33
1290.75	811.851
1291.74	805.41
1292.73	796.818
1293.72	788.2
1294.71	778.147
1295.69	767.348
1296.68	759.217
1297.67	750.263
1298.65	744.895
1299.64	740.435
1300.63	738.687
1301.61	737.612
1302.6	746.456
1303.58	755.845
1304.57	761.316
1305.55	761.787
1306.54	762.104
1307.52	761.056
1308.51	759.86
1309.49	762.005
1310.48	755.435
1311.46	748.924
1312.44	735.193
1313.42	728.772
1314.41	722.12
1315.39	720.932
1316.37	719.796
1317.35	723.481
1318.33	727.395
1319.32	737.72
1320.3	755.404
1321.28	772.288
1322.26	794.852
1323.24	816.394
1324.22	843.203
1325.2	860.662
1326.18	873.981
1327.15	881.258
1328.13	883.308
1329.11	860.3
1330.09	843.199
1331.07	822.703
1332.05	800.684
1333.02	786.816
1334	771.599
1334.98	757.851
1335.95	746.604
1336.93	737.323
1337.91	730.159
1338.88	722.67
1339.86	716.738
1340.83	710.823
1341.81	705.677
1342.78	700.883
1343.76	697.093
1344.73	694.528
1345.7	691.879
1346.68	689.101
1347.65	682.964
1348.62	680.291
1349.6	678.178
1350.57	677.064
1351.54	677.044
1352.51	677.904
1353.49	677.557
1354.46	677.39
1355.43	677.473
1356.4	676.143
1357.37	673.7
1358.34	670.754
1359.31	666.963
1360.28	662.645
1361.25	658.604
1362.22	654.443
1363.19	649.099
1364.16	643.364
1365.12	639.149
1366.09	636.972
1367.06	633.992
1368.03	633.456
1369	634.467
1369.96	635.706
1370.93	637.12
1371.9	637.996
1372.86	639.502
1373.83	640.835
1374.79	640.886
1375.76	639.907
1376.73	638.761
1377.69	637.145
1378.66	635.304
1379.62	632.471
1380.58	631.771
1381.55	630.514
1382.51	630.127
1383.48	630.544
1384.44	632.239
1385.4	632.902
1386.36	633.298
1387.33	633.347
1388.29	633.913
1389.25	633.108
1390.21	633.225
1391.17	632.471
1392.13	631.706
1393.09	630.008
1394.06	627.084
1395.01	623.53
1395.97	620.113
1396.93	615.581
1397.89	611.835
1398.85	608.582
1399.81	605.34
1400.77	603.057
1401.73	601.295
1402.69	600.106
1403.64	598.99
1404.6	596.971
1405.56	595.766
1406.52	594.88
1407.47	593.817
1408.43	591.872
1409.39	590.727
1410.34	588.256
1411.3	584.45
1412.25	581.408
1413.21	578.083
1414.16	574.117
1415.12	570.567
1416.07	568.311
1417.03	567.446
1417.98	566.728
1418.93	567.352
1419.89	568.973
1420.84	570.441
1421.79	572.678
1422.74	574.878
1423.7	577.101
1424.65	580.164
1425.6	582.894
1426.55	585.682
1427.5	588.872
1428.45	592.295
1429.4	594.778
1430.35	594.75
1431.3	593.442
1432.25	591.901
1433.2	590.574
1434.15	589.056
1435.1	588.686
1436.05	589.559
1437	590.853
1437.95	593.282
1438.89	604.119
1439.84	606.971
1440.79	608.703
1441.74	607.838
1442.68	605.21
1443.63	604.336
1444.58	602.712
1445.52	601.285
1446.47	598.972
1447.41	596.322
1448.36	593.165
1449.3	589.244
1450.25	586.033
1451.19	582.507
1452.14	579.23
1453.08	575.382
1454.03	572.388
1454.97	569.571
1455.91	566.877
1456.85	565.305
1457.8	563.524
1458.74	560.783
1459.68	557.493
1460.62	553.804
1461.57	550.297
1462.51	546.281
1463.45	542.201
1464.39	539.218
1465.33	536.17
1466.27	533.719
1467.21	530.989
1468.15	528.981
1469.09	527.251
1470.03	524.662
1470.97	522.311
1471.9	519.99
1472.84	518.105
1473.78	515.479
1474.72	514.501
1475.66	514.703
1476.59	511.656
1477.53	511.438
1478.47	513.879
1479.4	517.279
1480.34	521.664
1481.28	526.52
1482.21	531.658
1483.15	538.932
1484.08	546.309
1485.02	551.284
1485.95	553.714
1486.89	555.453
1487.82	556.125
1488.76	552.491
1489.69	547.785
1490.62	544.624
1491.56	540.869
1492.49	536.054
1493.42	529.997
1494.35	524.356
1495.29	519.668
1496.22	516.117
1497.15	513.272
1498.08	511.62
1499.01	512.084
1499.94	511.366
1500.87	508.992
1501.8	508.086
1502.73	505.839
1503.66	504.562
1504.59	503.873
1505.52	505.266
1506.45	508.769
1507.38	518.511
1508.31	524.826
1509.23	529.698
1510.16	534.924
1511.09	541.532
1512.02	547.353
1512.94	554.542
1513.87	565.868
1514.8	579.125
1515.72	595.513
1516.65	614.071
1517.58	634.346
1518.5	659.581
1519.43	680.466
1520.35	700.535
1521.28	716.748
1522.2	735.857
1523.12	750.503
1524.05	761.319
1524.97	769.979
1525.9	773.799
1526.82	774.05
1527.74	772.018
1528.66	768.875
1529.59	765.142
1530.51	757.366
1531.43	747.197
1532.35	733.146
1533.27	717.85
1534.19	701.887
1535.11	684.741
1536.04	667.158
1536.96	649.245
1537.88	630.217
1538.8	610.109
1539.71	591.386
1540.63	576.322
1541.55	561.45
1542.47	550.614
1543.39	540.535
1544.31	532.289
1545.23	526.482
1546.14	523.903
1547.06	521.824
1547.98	519.825
1548.89	518.803
1549.81	519.56
1550.73	519.911
1551.64	519.486
1552.56	518.287
1553.47	515.923
1554.39	511.908
1555.31	506.623
1556.22	500.638
1557.13	494.74
1558.05	488.449
1558.96	481.183
1559.88	474.789
1560.79	468.233
1561.7	461.893
1562.62	455.4
1563.53	449.846
1564.44	444.988
1565.35	440.443
1566.27	436.966
1567.18	432.988
1568.09	429.262
1569	427.002
1569.91	424.46
1570.82	421.63
1571.73	418.726
1572.64	416.219
1573.55	414.178
1574.46	413.249
1575.37	412.455
1576.28	411.741
1577.19	410.825
1578.1	408.957
1579	408.431
1579.91	409.171
1580.82	409.843
1581.73	410.132
1582.63	410.129
1583.54	406.241
1584.45	404.552
1585.35	403.69
1586.26	402.65
1587.17	402.005
1588.07	401.539
1588.98	401.462
1589.88	401.255
1590.79	401.287
1591.69	400.909
1592.6	399.939
1593.5	397.929
1594.4	394.596
1595.31	393.75
1596.21	394.047
1597.11	394.918
1598.02	396.249
1598.92	397.959
1599.82	399.47
1600.72	401.332
1601.63	403.542
1602.53	405.977
1603.43	408.709
1604.33	409.824
1605.23	410.204
1606.13	410.39
1607.03	410.12
1607.93	408.705
1608.83	406.747
1609.73	404.162
1610.63	401.847
1611.53	400.055
1612.43	398.324
1613.32	396.964
1614.22	395.52
1615.12	394.415
1616.02	393.503
1616.92	391.936
1617.81	390.376
1618.71	388.799
1619.61	387.208
1620.5	385.682
1621.4	384.629
1622.29	383.789
1623.19	383.034
1624.08	382.461
1624.98	382.033
1625.87	381.433
1626.77	380.867
1627.66	380.601
1628.56	380.605
1629.45	380.647
1630.34	380.354
1631.24	379.568
1632.13	378.067
1632.84	376.535
1633.77	374.312
1634.7	372.223
1635.63	370.201
1636.56	368.381
1637.49	366.983
1638.42	366.145
1639.34	366.651
1640.27	366.898
1641.2	366.599
1642.13	366.106
1643.05	366.141
1643.98	367.14
1644.91	368.148
1645.83	369.206
1646.76	369.323
1647.68	368.926
1648.61	368.175
1649.54	367.152
1650.46	366.094
1651.39	365.414
1652.31	365.226
1653.23	365.286
1654.16	365.064
1655.08	363.909
1656.01	362.278
1656.93	360.492
1657.85	358.725
1658.78	357.291
1659.7	356.311
1660.62	356.072
1661.54	358.083
1662.47	358.969
1663.39	359.743
1664.31	360.149
1665.23	360.407
1666.15	360.394
1667.07	360.056
1667.99	359.531
1668.92	358.726
1669.84	357.748
1670.76	356.603
1671.68	355.275
1672.6	353.781
1673.52	352.109
1674.43	350.333
1675.35	348.457
1676.27	346.401
1677.19	344.226
1678.11	341.803
1679.03	340.826
1679.95	340.892
1680.86	340.654
1681.78	340.216
1682.7	339.717
1683.61	339.16
1684.53	338.491
1685.45	337.719
1686.36	336.917
1687.28	336.068
1688.2	335.15
1689.11	334.177
1690.03	333.062
1690.94	331.967
1691.86	330.539
1692.77	329.026
1693.69	327.417
1694.6	325.809
1695.52	324.677
1696.43	323.936
1697.34	323.764
1698.26	323.542
1699.17	323.249
1700.08	322.982
1700.99	322.808
1701.91	322.748
1702.82	322.276
1703.73	321.742
1704.64	320.908
1705.55	320.209
1706.47	319.538
1707.38	318.938
1708.29	318.656
1709.2	318.263
1710.11	317.766
1711.02	317.207
1711.93	316.475
1712.84	315.602
1713.75	314.099
1714.66	312.38
1715.57	310.803
1716.48	309.315
1717.39	308.321
1718.29	307.509
1719.2	306.325
1720.11	304.953
1721.02	304.08
1721.93	303.446
1722.83	303.226
1723.74	303.352
1724.65	303.543
1725.55	303.811
1726.46	304.144
1727.37	304.529
1728.27	304.773
1729.18	305.072
1730.08	305.269
1730.99	305.481
1731.89	305.483
1732.8	305.722
1733.7	305.861
1734.61	305.853
1735.51	305.541
1736.42	304.801
1737.32	303.047
1738.22	301.385
1739.13	299.119
1740.03	296.826
1740.93	294.65
1741.83	292.821
1742.74	291.311
1743.64	290.217
1744.54	289.398
1745.44	288.845
1746.34	288.626
1747.24	288.501
1748.15	288.848
1749.05	289.225
1749.95	289.61
1750.85	289.936
1751.75	289.763
1752.65	289.538
1753.55	288.908
1754.45	288.285
1755.35	287.268
1756.25	286.215
1757.14	285.116
1758.04	283.972
1758.94	282.849
1759.84	281.703
1760.74	280.627
1761.63	279.907
1762.53	279.181
1763.43	278.202
1764.33	277.276
1765.22	276.344
1766.12	275.438
1767.02	274.592
1767.91	273.803
1768.81	273.104
1769.7	272.515
1770.6	272.032
1771.49	271.668
1772.39	271.648
1773.28	272.185
1774.18	272.786
1775.07	273.007
1775.97	272.33
1776.86	272.094
1777.75	271.842
1778.65	271.769
1779.54	271.539
1780.43	271.103
1781.33	270.765
1782.22	270.122
1783.11	269.43
1784	268.672
1784.89	267.974
1785.79	267.288
1786.68	266.718
1787.57	266.267
1788.46	265.85
1789.35	265.955
1790.24	266.257
1791.13	266.608
1792.02	266.707
1792.91	266.564
1793.8	265.294
1794.69	263.809
1795.58	261.909
1796.47	259.355
1797.36	256.184
1798.25	252.447
1799.13	247.799
