Acq. time (s)=	15
Accumulations=	2
Range (cm-¹)=	600...1800
Windows=	2
Autofocus=	Off
AutoExposure=	On
Spike filter=	Multiple accum.
Delay time (s)=	1
Binning=	1
Readout mode=	Signal
DeNoise=	Standard
ICS correction=	Off
Dark correction=	Off
Inst. Process=	Off
Instrument=	XploRA
Detector=	Syncerity
Objective=	x20LWD
Grating=	1200 gr/mm
Filter=	25%
Laser (nm)=	785 
Slit (µm)=	100 
Hole (µm)=	300 
Laser pol=	None
Raman pol=	None
Output=	Camera
StageXY=	Marzhauser
StageZ=	
X (µm)=	1253.9
Y (µm)=	-5384.9
Project=	
Sample=	
Site=	
Title=	To8-T
Remark=	
Date=	14.10.2022 23:00
Acquired=	14.10.2022 23:00:52
600.787	311.888
601.956	319.576
603.126	325.785
604.294	329.887
605.463	333.447
606.631	336.574
607.8	339.064
608.967	340.449
610.135	341.268
611.302	342.057
612.468	342.485
613.635	342.659
614.802	343.182
615.968	343.619
617.133	344.102
618.299	344.294
619.464	344.765
620.629	344.996
621.793	345.747
622.958	347.718
624.121	349.415
625.285	350.905
626.448	352.531
627.612	354.628
628.774	356.341
629.937	357.79
631.099	358.64
632.261	359.06
633.423	359.656
634.584	359.519
635.745	359.597
636.906	359.886
638.066	359.632
639.227	358.549
640.386	357.142
641.546	355.525
642.705	354.124
643.864	353.063
645.023	352.017
646.181	350.609
647.339	349.052
648.497	346.644
649.655	344.263
650.812	342.52
651.969	340.149
653.125	338.251
654.282	337.569
655.438	338.299
656.593	339.908
657.75	340.566
658.905	341.827
660.059	342.541
661.214	343.059
662.368	343.908
663.522	344.105
664.676	344.277
665.83	344
666.983	343.429
668.136	343.769
669.288	344.169
670.441	344.363
671.592	344.817
672.744	345.29
673.895	346.097
675.046	346.566
676.197	346.682
677.348	347.142
678.498	347.412
679.648	347.39
680.798	346.966
681.947	346.713
683.096	346.095
684.245	345.776
685.394	345.743
686.542	345.683
687.69	345.198
688.837	344.636
689.984	345.154
691.132	345.835
692.278	345.646
693.425	346.246
694.571	347.013
695.717	346.919
696.863	346.457
698.008	346.186
699.152	345.692
700.298	345.27
701.442	344.452
702.586	343.643
703.73	342.668
704.873	341.095
706.017	339.711
707.16	338.081
708.302	337.064
709.445	335.904
710.586	334.566
711.729	333.001
712.87	331.815
714.012	330.685
715.152	330.111
716.293	329.884
717.433	329.724
718.573	329.526
719.713	329.815
720.853	328.898
721.991	328.782
723.131	328.789
724.269	328.955
725.408	329.342
726.545	329.562
727.683	329.771
728.821	330.649
729.958	329.896
731.095	330.09
732.231	330.721
733.368	330.497
734.503	331.12
735.639	331.467
736.775	332.951
737.91	334.472
739.045	336.803
740.179	339.655
741.313	341.853
742.447	342.502
743.581	343.667
744.714	344.428
745.847	344.055
746.98	342.795
748.113	340.347
749.245	337.756
750.377	335.879
751.509	333.257
752.64	330.083
753.771	327.041
754.902	323.801
756.033	320.297
757.163	318.143
758.293	315.802
759.423	314.325
760.551	313.471
761.681	313.54
762.81	314.424
763.938	314.563
765.066	314.713
766.194	314.479
767.321	314.643
768.449	314.556
769.576	314.028
770.703	313.203
771.83	312.313
772.955	311.001
774.081	308.946
775.207	306.921
776.332	305.374
777.457	303.937
778.582	302.402
779.707	300.92
780.831	298.844
781.954	297.956
783.078	297.506
784.201	297.099
785.324	296.093
786.447	294.362
787.569	293.115
788.691	291.865
789.813	291.045
790.935	289.908
792.056	288.059
793.177	285.984
794.297	284.209
795.418	282.819
796.539	281.868
797.658	280.463
798.777	279.205
799.897	279.227
801.016	278.638
802.134	278.19
803.253	277.777
804.371	277.477
805.489	276.256
806.606	276.319
807.723	275.72
808.84	275.072
809.957	274.797
811.073	274.55
812.19	274.38
813.305	274.389
814.421	274.57
815.536	274.447
816.651	274.802
817.766	275.476
818.88	275.876
819.994	275.231
821.108	275.201
822.221	274.785
823.335	274.588
824.448	274.823
825.56	274.876
826.673	274.942
827.784	275.703
828.897	275.902
830.008	274.952
831.119	273.861
832.23	273.376
833.341	273.695
834.451	274.266
835.561	274.287
836.671	273.858
837.78	273.69
838.89	273.201
839.998	272.408
841.108	271.529
842.216	270.994
843.324	271.108
844.431	270.653
845.539	270.464
846.646	270.58
847.753	271.571
848.859	271.636
849.966	271.126
851.071	270.023
852.178	269.334
853.283	269.24
854.388	269.337
855.494	269.107
856.598	268.083
857.703	267.884
858.806	267.356
859.91	266.658
861.014	265.829
862.116	265.397
863.22	265.631
864.322	264.938
865.425	264.285
866.527	263.43
867.628	262.76
868.73	262.302
869.831	261.252
870.932	259.25
872.032	258.192
873.133	257.003
874.233	256.438
875.333	255.615
876.432	255.211
877.532	254.925
878.631	254.313
879.729	253.893
880.828	253.492
881.926	253.165
883.023	252.244
884.121	251.392
885.218	250.696
886.315	250.227
887.412	249.913
888.508	249.194
889.604	248.666
890.699	248.531
891.795	249.03
892.89	249.527
893.985	249.659
895.08	249.665
896.174	249.757
897.268	248.852
898.362	248.113
899.456	247.847
900.549	247.339
901.642	246.696
902.734	246.051
903.827	244.749
904.919	243.162
906.011	239.834
907.102	238.598
908.193	238.431
909.284	237.878
910.375	239.139
911.465	240.601
912.555	242.291
913.645	243.885
914.734	245.256
915.824	246.482
916.913	247.045
918.001	246.554
919.09	246.127
920.177	246.093
921.266	245.601
922.353	243.729
923.44	240.606
924.527	237.254
925.614	234.64
926.7	232.341
927.786	230.242
928.873	228.022
929.958	226.482
931.043	224.353
932.128	222.484
933.213	220.997
934.297	219.377
935.381	218.546
936.465	217.789
937.549	217.485
938.632	217.14
939.715	217.239
940.798	217.401
941.881	217.803
942.962	217.544
944.044	217.48
945.125	217.918
946.207	217.911
947.288	218.752
948.368	219.529
949.449	219.886
950.529	219.853
951.61	219.765
952.689	219.196
953.769	218.325
954.847	217.763
955.926	217.271
957.004	217.128
958.082	218.019
959.16	218.641
960.238	219.369
961.316	220.148
962.392	220.653
963.469	221.598
964.546	221.772
965.622	221.885
966.698	221.567
967.774	221.288
968.849	220.646
969.924	219.702
970.998	218.488
972.073	216.014
973.148	212.84
974.221	211.461
975.295	211.177
976.369	211.671
977.441	211.987
978.514	212.344
979.587	213.566
980.659	215.296
981.731	216.97
982.802	219.279
983.874	220.621
984.945	221.465
986.016	222.049
987.087	221.985
988.157	221.048
989.227	219.379
990.296	219.149
991.366	219.978
992.435	219.191
993.504	218.236
994.573	216.776
995.641	215.309
996.709	213.871
997.777	212.225
998.844	211.112
999.911	211.113
1000.98	211.581
1002.05	211.795
1003.11	211.355
1004.18	210.802
1005.24	210.369
1006.31	209.351
1007.37	208.566
1008.44	207.459
1009.5	205.55
1010.57	204.169
1011.63	202.915
1012.7	201.997
1013.76	201.403
1014.82	200.699
1015.89	200.063
1016.95	199.881
1018.01	199.964
1019.07	199.604
1020.13	200.221
1021.2	201.017
1022.26	200.721
1023.32	199.501
1024.38	197.353
1025.44	195.473
1026.5	194.14
1027.56	192.358
1028.62	190.225
1029.68	188.788
1030.74	187.787
1031.8	186.867
1032.85	186.108
1033.91	186.056
1034.97	186.478
1036.03	186.828
1037.09	186.841
1038.14	187.398
1039.2	188.095
1040.26	188.731
1041.31	189.55
1042.37	190.637
1043.42	191.182
1044.48	191.299
1045.53	191.949
1046.59	192.736
1047.64	193.195
1048.7	192.862
1049.75	192.063
1050.81	191.308
1051.86	190.086
1052.91	188.663
1053.97	187.085
1055.02	184.934
1056.07	183.997
1057.12	183.108
1058.17	182.212
1059.23	181.454
1060.28	181.537
1061.33	181.726
1062.38	182.494
1063.43	183.681
1064.48	184.841
1065.53	186.191
1066.58	187.596
1067.63	188.298
1068.68	187.781
1069.72	186.846
1070.77	185.497
1071.82	184.576
1072.87	183.022
1073.92	181.506
1074.96	180.167
1076.01	178.921
1077.06	177.713
1078.1	176.05
1079.15	174.946
1080.2	173.43
1081.24	173.591
1082.29	174.353
1083.33	175.69
1084.38	176.971
1085.42	177.183
1086.47	177.221
1087.51	177.363
1088.55	177.692
1089.6	177.829
1090.64	177.002
1091.68	175.439
1092.73	174.691
1093.77	173.984
1094.81	173.632
1095.85	172.949
1096.89	172.096
1097.93	171.728
1098.98	171.321
1100.02	171.51
1101.06	171.257
1102.1	171.453
1103.14	172.179
1104.18	172.66
1105.21	173.023
1106.25	172.757
1107.29	172.587
1108.33	172.498
1109.37	172.068
1110.41	171.713
1111.44	170.657
1112.48	169.686
1113.52	169.17
1114.56	168.784
1115.59	168.892
1116.63	168.598
1117.66	167.401
1118.7	166.499
1119.73	165.883
1120.77	165.705
1121.8	165.878
1122.84	166.504
1123.87	166.298
1124.91	165.262
1125.94	164.662
1126.97	163.923
1128.01	163.459
1129.04	163.458
1130.07	163.409
1131.11	163.312
1132.14	163.515
1133.17	164.423
1134.2	165.467
1135.23	166.312
1136.26	167.571
1137.29	168.982
1138.32	170.523
1139.35	171.974
1140.38	173.621
1141.41	175.481
1142.44	176.621
1143.47	177.951
1144.5	177.619
1145.53	177.269
1146.56	177.084
1147.58	177.744
1148.61	177.646
1149.64	178.951
1150.67	180.662
1151.69	183.111
1152.72	185.477
1153.75	187.49
1154.77	189.735
1155.8	193.192
1156.82	193.351
1157.85	191.301
1158.87	188.241
1159.9	184.826
1160.92	181.303
1161.95	177.517
1162.97	173.411
1163.99	169.606
1165.02	165.846
1166.04	163.087
1167.06	160.817
1168.08	159.55
1169.11	159.451
1170.13	158.615
1171.15	159.576
1172.17	159.661
1173.19	159.931
1174.21	160.98
1175.23	162.242
1176.25	163.667
1177.27	164.925
1178.29	166.334
1179.31	167.513
1180.33	169.222
1181.35	170.302
1182.37	170.766
1183.39	170.662
1184.4	171.778
1185.42	172.288
1186.44	171.862
1187.46	170.784
1188.47	168.541
1189.49	165.551
1190.51	162.498
1191.52	158.679
1192.54	155.158
1193.55	151.769
1194.57	153.13
1195.58	151.009
1196.6	148.946
1197.61	147.392
1198.63	146.187
1199.64	145.157
1200.65	144.825
1201.67	145.667
1202.68	145.933
1203.69	146.985
1204.7	148.153
1205.72	148.795
1206.73	149.578
1207.74	151.216
1208.75	152.173
1209.76	153.123
1210.77	153.701
1211.78	153.746
1212.79	153.425
1213.8	153.331
1214.81	152.453
1215.82	151.681
1216.83	151.333
1217.84	151.457
1218.85	150.975
1219.86	149.953
1220.87	150.034
1221.87	149.855
1222.88	150.146
1223.89	150.44
1224.9	150.996
1225.9	150.894
1226.91	150.668
1227.92	149.599
1228.92	147.94
1229.93	145.838
1230.93	143.948
1231.94	142.338
1232.94	140.6
1233.95	138.604
1234.95	136.73
1235.95	135.064
1236.96	133.277
1237.96	131.469
1238.96	130.334
1239.97	130.555
1240.97	131.23
1241.97	132.327
1242.97	132.931
1243.98	134.68
1244.98	135.874
1245.98	136.491
1246.98	136.425
1247.98	136.765
1248.98	136.886
1249.98	136.445
1250.98	135.823
1251.98	135.042
1252.98	133.924
1253.98	133.336
1254.98	132.324
1255.98	131.516
1256.97	130.828
1257.97	130.497
1258.97	130.562
1259.97	131.278
1260.97	131.829
1261.96	132.19
1262.96	132.156
1263.95	132.409
1264.95	132.643
1265.95	132.925
1266.94	133.229
1267.94	133.742
1268.93	133.503
1269.93	133.177
1270.92	133.189
1271.92	131.018
1272.91	129.888
1273.9	129.087
1274.9	128.564
1275.89	128.011
1276.88	127.55
1277.87	127.671
1278.87	128.883
1279.86	130.654
1280.85	131.45
1281.84	131.382
1282.83	131.133
1283.82	131.026
1284.81	130.618
1285.81	130.294
1286.8	129.856
1287.79	129.237
1288.77	128.492
1289.76	127.917
1290.75	127.449
1291.74	126.778
1292.73	126.773
1293.72	125.85
1294.71	125.096
1295.69	124.893
1296.68	125.003
1297.67	125.082
1298.65	125.072
1299.64	125.111
1300.63	125.221
1301.61	124.672
1302.6	124.371
1303.58	124.458
1304.57	124.334
1305.55	124.424
1306.54	124.334
1307.52	124.284
1308.51	123.734
1309.49	123.489
1310.48	123.321
1311.46	123.008
1312.44	122.523
1313.42	122.092
1314.41	122.33
1315.39	122.901
1316.37	123.206
1317.35	123.755
1318.33	124.684
1319.32	126.167
1320.3	127.871
1321.28	130.161
1322.26	133.324
1323.24	134.596
1324.22	136.14
1325.2	137.634
1326.18	137.874
1327.15	137.219
1328.13	135.327
1329.11	133.875
1330.09	132.3
1331.07	130.737
1332.05	128.815
1333.02	126.986
1334	125.191
1334.98	124.1
1335.95	123.067
1336.93	121.518
1337.91	120.407
1338.88	119.245
1339.86	118.571
1340.83	117.278
1341.81	115.772
1342.78	114.37
1343.76	112.923
1344.73	112.104
1345.7	111.337
1346.68	110.451
1347.65	109.763
1348.62	110.299
1349.6	110.381
1350.57	110.035
1351.54	109.872
1352.51	109.526
1353.49	109.485
1354.46	109.685
1355.43	109.461
1356.4	109.36
1357.37	109.337
1358.34	109.587
1359.31	110.004
1360.28	110.215
1361.25	110.195
1362.22	110.097
1363.19	109.95
1364.16	108.427
1365.12	107.965
1366.09	107.484
1367.06	106.791
1368.03	106.107
1369	105.866
1369.96	105.563
1370.93	105.677
1371.9	105.864
1372.86	106.431
1373.83	106.765
1374.79	106.59
1375.76	107.029
1376.73	106.911
1377.69	106.917
1378.66	106.729
1379.62	106.419
1380.58	106.149
1381.55	105.942
1382.51	105.41
1383.48	105.008
1384.44	104.554
1385.4	105.01
1386.36	105.298
1387.33	105.49
1388.29	105.28
1389.25	105.613
1390.21	105.897
1391.17	106.422
1392.13	108.269
1393.09	108.371
1394.06	107.555
1395.01	106.64
1395.97	105.127
1396.93	103.678
1397.89	101.479
1398.85	100.44
1399.81	99.9247
1400.77	100.303
1401.73	100.474
1402.69	100.32
1403.64	99.8006
1404.6	99.4644
1405.56	98.6648
1406.52	97.9147
1407.47	97.5393
1408.43	97.7834
1409.39	98.4812
1410.34	98.8626
1411.3	99.6853
1412.25	100.295
1413.21	100.727
1414.16	100.521
1415.12	100.458
1416.07	100.509
1417.03	100.445
1417.98	99.8461
1418.93	99.4684
1419.89	98.2601
1420.84	97.1398
1421.79	96.2297
1422.74	95.1525
1423.7	94.3358
1424.65	93.9234
1425.6	93.6084
1426.55	93.9288
1427.5	94.522
1428.45	95.7961
1429.4	97.3816
1430.35	99.3694
1431.3	101.17
1432.25	102.375
1433.2	103.681
1434.15	104.591
1435.1	105.473
1436.05	105.398
1437	104.296
1437.95	103.406
1438.89	102.842
1439.84	101.968
1440.79	101.16
1441.74	100.706
1442.68	100.218
1443.63	99.5494
1444.58	99.0536
1445.52	98.963
1446.47	98.58
1447.41	98.519
1448.36	98.0162
1449.3	97.875
1450.25	97.8861
1451.19	97.669
1452.14	97.4212
1453.08	96.7777
1454.03	95.2911
1454.97	93.879
1455.91	92.7691
1456.85	91.4899
1457.8	90.5689
1458.74	89.8242
1459.68	89.7655
1460.62	90.3104
1461.57	90.6077
1462.51	90.8374
1463.45	90.5034
1464.39	89.6441
1465.33	89.1303
1466.27	88.9616
1467.21	88.9274
1468.15	89.2088
1469.09	90.7027
1470.03	90.6943
1470.97	90.9641
1471.9	90.6465
1472.84	89.8014
1473.78	89.4147
1474.72	87.7272
1475.66	89.057
1476.59	90.4411
1477.53	90.9312
1478.47	90.6395
1479.4	90.5689
1480.34	90.3153
1481.28	90.2416
1482.21	90.1067
1483.15	90.0669
1484.08	90.3988
1485.02	91.0906
1485.95	91.7239
1486.89	92.5581
1487.82	92.5532
1488.76	92.2475
1489.69	91.9959
1490.62	91.4504
1491.56	91.2496
1492.49	90.5445
1493.42	89.5457
1494.35	88.8419
1495.29	88.2206
1496.22	87.5267
1497.15	87.0651
1498.08	86.8207
1499.01	86.4231
1499.94	86.2411
1500.87	86.4753
1501.8	86.5223
1502.73	86.3811
1503.66	86.5772
1504.59	87.1573
1505.52	88.237
1506.45	89.1386
1507.38	89.8553
1508.31	90.691
1509.23	91.6353
1510.16	92.5672
1511.09	93.7258
1512.02	95.0113
1512.94	96.6073
1513.87	98.5216
1514.8	100.363
1515.72	102.256
1516.65	104.099
1517.58	104.819
1518.5	107.309
1519.43	110.508
1520.35	112.788
1521.28	114.787
1522.2	116.674
1523.12	118.654
1524.05	120.49
1524.97	121.665
1525.9	122.349
1526.82	122.901
1527.74	122.868
1528.66	122.076
1529.59	118.395
1530.51	116.652
1531.43	114.791
1532.35	112.558
1533.27	110.277
1534.19	107.917
1535.11	105.331
1536.04	102.795
1536.96	100.401
1537.88	98.7348
1538.8	96.751
1539.71	94.7927
1540.63	93.1326
1541.55	91.1897
1542.47	89.5886
1543.39	88.5671
1544.31	88.1345
1545.23	88.0221
1546.14	87.5733
1547.06	87.0963
1547.98	87.1906
1548.89	87.2854
1549.81	87.2273
1550.73	87.4005
1551.64	87.4943
1552.56	87.3683
1553.47	87.108
1554.39	86.9031
1555.31	86.5363
1556.22	85.9576
1557.13	85.251
1558.05	84.3193
1558.96	83.3885
1559.88	82.3025
1560.79	81.6151
1561.7	81.0559
1562.62	80.772
1563.53	80.6412
1564.44	80.5077
1565.35	80.3666
1566.27	79.9676
1567.18	79.5287
1568.09	78.7874
1569	78.104
1569.91	77.6842
1570.82	77.2633
1571.73	76.5301
1572.64	75.9447
1573.55	75.2074
1574.46	74.8414
1575.37	74.0981
1576.28	73.6069
1577.19	73.2616
1578.1	72.9231
1579	72.7534
1579.91	72.8947
1580.82	73.0904
1581.73	73.4292
1582.63	73.7414
1583.54	74.0053
1584.45	74.2991
1585.35	74.428
1586.26	74.5701
1587.17	74.6672
1588.07	74.3354
1588.98	74.565
1589.88	74.7432
1590.79	75.0283
1591.69	75.004
1592.6	74.8334
1593.5	74.787
1594.4	74.8092
1595.31	74.8786
1596.21	74.778
1597.11	74.7788
1598.02	75.0151
1598.92	75.292
1599.82	75.5631
1600.72	75.6506
1601.63	75.8864
1602.53	76.258
1603.43	76.7193
1604.33	77.078
1605.23	77.4598
1606.13	77.8844
1607.03	78.1816
1607.93	77.9985
1608.83	77.4711
1609.73	77.0672
1610.63	76.5294
1611.53	76.0292
1612.43	75.6598
1613.32	74.8217
1614.22	74.1119
1615.12	73.8003
1616.02	73.652
1616.92	73.223
1617.81	72.7953
1618.71	72.5174
1619.61	72.0379
1620.5	71.5684
1621.4	71.2021
1622.29	70.942
1623.19	70.7995
1624.08	70.6145
1624.98	70.5581
1625.87	70.7409
1626.77	70.9345
1627.66	71.1841
1628.56	71.4744
1629.45	71.3874
1630.34	71.1207
1631.24	70.9815
1632.13	70.7935
1632.84	70.6872
1633.77	70.6622
1634.7	70.4336
1635.63	70.1973
1636.56	69.9294
1637.49	70.043
1638.42	70.3586
1639.34	70.6724
1640.27	70.5687
1641.2	69.5742
1642.13	68.6811
1643.05	67.8253
1643.98	67.0068
1644.91	66.5735
1645.83	66.2483
1646.76	66.0239
1647.68	65.849
1648.61	65.7816
1649.54	65.7758
1650.46	65.6971
1651.39	65.6911
1652.31	65.6271
1653.23	65.6415
1654.16	65.5775
1655.08	65.3928
1656.01	65.3378
1656.93	65.2502
1657.85	65.2045
1658.78	65.2965
1659.7	65.4094
1660.62	65.6107
1661.54	65.8739
1662.47	66.1726
1663.39	66.671
1664.31	67.0792
1665.23	67.3717
1666.15	67.5122
1667.07	67.0596
1667.99	66.1235
1668.92	65.6471
1669.84	65.9269
1670.76	66.4189
1671.68	66.9701
1672.6	67.531
1673.52	68.0196
1674.43	68.4526
1675.35	68.7358
1676.27	69.0023
1677.19	69.1693
1678.11	70.4121
1679.03	70.9473
1679.95	70.3155
1680.86	68.9256
1681.78	67.8796
1682.7	67.0643
1683.61	66.5064
1684.53	66.0479
1685.45	65.2264
1686.36	64.7421
1687.28	63.5385
1688.2	62.5508
1689.11	61.7827
1690.03	61.245
1690.94	61.1271
1691.86	61.1862
1692.77	61.3833
1693.69	61.2029
1694.6	60.9761
1695.52	60.7582
1696.43	60.5443
1697.34	60.3476
1698.26	60.1781
1699.17	60.0248
1700.08	59.8996
1700.99	59.8145
1701.91	59.7577
1702.82	59.733
1703.73	59.7467
1704.64	59.7526
1705.55	59.8569
1706.47	59.9666
1707.38	60.1401
1708.29	60.4585
1709.2	60.7637
1710.11	61.1293
1711.02	61.2733
1711.93	61.2608
1712.84	60.4231
1713.75	59.7331
1714.66	59.1385
1715.57	58.5164
1716.48	58.1515
1717.39	58.0573
1718.29	57.8703
1719.2	58.1041
1720.11	58.358
1721.02	58.674
1721.93	58.9982
1722.83	59.3358
1723.74	59.7158
1724.65	59.8296
1725.55	59.9891
1726.46	60.0505
1727.37	59.7576
1728.27	59.509
1729.18	59.1487
1730.08	58.7603
1730.99	58.4004
1731.89	58.0374
1732.8	57.4851
1733.7	57.3959
1734.61	57.296
1735.51	57.0138
1736.42	57.0621
1737.32	57.4778
1738.22	57.6535
1739.13	57.9838
1740.03	57.9716
1740.93	58.0586
1741.83	57.9942
1742.74	57.5254
1743.64	57.5557
1744.54	57.5077
1745.44	57.4149
1746.34	57.2628
1747.24	57.3678
1748.15	57.3196
1749.05	56.9635
1749.95	56.3543
1750.85	56.2377
1751.75	56.2787
1752.65	56.2674
1753.55	56.2683
1754.45	55.8793
1755.35	55.9679
1756.25	56.1941
1757.14	56.5283
1758.04	56.7384
1758.94	57.2643
1759.84	57.3437
1760.74	57.3796
1761.63	56.9716
1762.53	56.7715
1763.43	56.4618
1764.33	55.5753
1765.22	54.8624
1766.12	54.2539
1767.02	53.5708
1767.91	53.0218
1768.81	52.8114
1769.7	52.6965
1770.6	52.6343
1771.49	52.7501
1772.39	52.9022
1773.28	53.2197
1774.18	53.8273
1775.07	54.5861
1775.97	55.1264
1776.86	55.5704
1777.75	55.9924
1778.65	55.8197
1779.54	55.9373
1780.43	56.06
1781.33	56.0951
1782.22	56.0369
1783.11	55.7853
1784	55.3815
1784.89	54.9314
1785.79	54.5434
1786.68	53.9243
1787.57	53.3559
1788.46	53.0162
1789.35	52.7619
1790.24	52.6417
1791.13	52.4998
1792.02	52.443
1792.91	52.3865
1793.8	52.4566
1794.69	52.6785
1795.58	52.8728
1796.47	53.2343
1797.36	53.9977
1798.25	55.5871
1799.13	57.2142
