Acq. time (s)=	15
Accumulations=	2
Range (cm-¹)=	600...1800
Windows=	2
Autofocus=	Off
AutoExposure=	On
Spike filter=	Multiple accum.
Delay time (s)=	1
Binning=	1
Readout mode=	Signal
DeNoise=	Standard
ICS correction=	Off
Dark correction=	Off
Inst. Process=	Off
Instrument=	XploRA
Detector=	Syncerity
Objective=	x20LWD
Grating=	1200 gr/mm
Filter=	25%
Laser (nm)=	785 
Slit (µm)=	100 
Hole (µm)=	300 
Laser pol=	None
Raman pol=	None
Output=	Camera
StageXY=	Marzhauser
StageZ=	
X (µm)=	2951.3
Y (µm)=	-3838.5
Project=	
Sample=	
Site=	
Title=	To7-T
Remark=	
Date=	14.10.2022 22:31
Acquired=	14.10.2022 22:31:08
600.787	690.197
601.956	699.978
603.126	711.327
604.294	720.36
605.463	730.146
606.631	734.778
607.8	740.091
608.967	746.607
610.135	752.718
611.302	756.873
612.468	756.796
613.635	757.401
614.802	759.809
615.968	763.802
617.133	769.573
618.299	770.514
619.464	770.319
620.629	769.808
621.793	768.418
622.958	766.537
624.121	765.928
625.285	766.927
626.448	766.309
627.612	766.19
628.774	766.561
629.937	768.612
631.099	771.808
632.261	775.037
633.423	778.158
634.584	778.418
635.745	778.277
636.906	778.01
638.066	777.634
639.227	777.083
640.386	776.519
641.546	775.802
642.705	775.038
643.864	774.208
645.023	773.499
646.181	772.752
647.339	771.527
648.497	768.097
649.655	765.262
650.812	762.595
651.969	760.511
653.125	759.119
654.282	758.572
655.438	758.566
656.593	759.44
657.75	761.385
658.905	765.194
660.059	767.354
661.214	769.227
662.368	771.034
663.522	773.042
664.676	775.063
665.83	777.295
666.983	779.6
668.136	781.916
669.288	784.092
670.441	783.36
671.592	781.672
672.744	779.76
673.895	777.768
675.046	776.673
676.197	775.664
677.348	775.123
678.498	774.847
679.648	774.902
680.798	775.265
681.947	775.522
683.096	775.921
684.245	775.602
685.394	776.366
686.542	777.193
687.69	778.075
688.837	778.949
689.984	779.669
691.132	780.222
692.278	780.699
693.425	780.624
694.571	780.345
695.717	780.353
696.863	780.192
698.008	779.673
699.152	778.764
700.298	777.695
701.442	776.257
702.586	774.805
703.73	773.27
704.873	771.968
706.017	770.951
707.16	770.088
708.302	769.772
709.445	769.508
710.586	769.308
711.729	769.281
712.87	769.64
714.012	770.014
715.152	769.866
716.293	768.428
717.433	767.803
718.573	767.628
719.713	767.694
720.853	767.786
721.991	767.836
723.131	767.82
724.269	767.956
725.408	766.731
726.545	764.708
727.683	762.736
728.821	761.101
729.958	760.107
731.095	761.016
732.231	759.456
733.368	761.388
734.503	763.4
735.639	764.126
736.775	765.195
737.91	766.413
739.045	767.961
740.179	769.781
741.313	771.924
742.447	774.11
743.581	775.997
744.714	776.612
745.847	775.692
746.98	773.368
748.113	770.227
749.245	767.251
750.377	763.592
751.509	759.696
752.64	755.642
753.771	752.149
754.902	749.401
756.033	745.951
757.163	742.489
758.293	738.982
759.423	735.213
760.551	731.537
761.681	728.265
762.81	725.259
763.938	722.526
765.066	720.007
766.194	717.417
767.321	714.972
768.449	712.465
769.576	709.994
770.703	707.936
771.83	705.972
772.955	704.241
774.081	702.478
775.207	700.473
776.332	698.611
777.457	697.138
778.582	695.616
779.707	694.146
780.831	692.591
781.954	690.044
783.078	686.771
784.201	683.563
785.324	680.327
786.447	677.454
787.569	674.604
788.691	671.586
789.813	668.8
790.935	666.242
792.056	663.915
793.177	661.889
794.297	660.121
795.418	659.03
796.539	658.041
797.658	657.942
798.777	658.186
799.897	658.6
801.016	658.756
802.134	657.297
803.253	656.027
804.371	654.521
805.489	653.634
806.606	653.4
807.723	653.083
808.84	651.768
809.957	650.379
811.073	648.813
812.19	647.802
813.305	646.895
814.421	646.498
815.536	646
816.651	645.551
817.766	645.34
818.88	645.111
819.994	644.968
821.108	645.011
822.221	644.772
823.335	644.412
824.448	644.09
825.56	643.37
826.673	642.98
827.784	642.53
828.897	642.226
830.008	641.693
831.119	640.91
832.23	639.68
833.341	637.736
834.451	636.453
835.561	636.011
836.671	635.565
837.78	635.074
838.89	634.65
839.998	634.199
841.108	633.368
842.216	632.348
843.324	630.49
844.431	627.958
845.539	625.338
846.646	623.201
847.753	620.932
848.859	618.418
849.966	615.722
851.071	612.565
852.178	609.272
853.283	606.118
854.388	603.354
855.494	601.944
856.598	601.182
857.703	600.714
858.806	599.39
859.91	598.457
861.014	597.584
862.116	596.966
863.22	595.284
864.322	593.562
865.425	591.84
866.527	590.363
867.628	589.589
868.73	588.982
869.831	588.407
870.932	587.751
872.032	586.345
873.133	584.386
874.233	582.642
875.333	581.264
876.432	579.512
877.532	577.827
878.631	576.278
879.729	574.757
880.828	573.643
881.926	572.678
883.023	572.054
884.121	571.513
885.218	571.219
886.315	570.709
887.412	570.233
888.508	569.995
889.604	569.781
890.699	569.963
891.795	570.448
892.89	571.599
893.985	572.793
895.08	574.104
896.174	575.356
897.268	580.954
898.362	579.493
899.456	577.596
900.549	574.969
901.642	571.323
902.734	567.864
903.827	564.766
904.919	562.704
906.011	561.351
907.102	560.833
908.193	561.14
909.284	562.229
910.375	564.815
911.465	568.406
912.555	571.234
913.645	572.922
914.734	573.441
915.824	572.536
916.913	571.035
918.001	568.675
919.09	565.605
920.177	560.45
921.266	556.118
922.353	551.068
923.44	545.98
924.527	541.125
925.614	536.646
926.7	532.557
927.786	528.849
928.873	525.802
929.958	523.129
931.043	521.008
932.128	519.294
933.213	517.937
934.297	517.664
935.381	517.813
936.465	518.226
937.549	518.826
938.632	519.57
939.715	519.696
940.798	519.949
941.881	520.272
942.962	520.455
944.044	520.93
945.125	521.347
946.207	521.627
947.288	521.722
948.368	521.668
949.449	521.264
950.529	520.064
951.61	518.743
952.689	517.102
953.769	515.37
954.847	513.165
955.926	510.765
957.004	508.415
958.082	506.759
959.16	505.137
960.238	503.651
961.316	502.198
962.392	501.127
963.469	500.279
964.546	499.586
965.622	498.999
966.698	498.31
967.774	497.718
968.849	497.079
969.924	496.121
970.998	495.283
972.073	494.637
973.148	494.499
974.221	495.042
975.295	496.1
976.369	497.348
977.441	498.854
978.514	500.414
979.587	502.044
980.659	503.719
981.731	505.506
982.802	507.592
983.874	509.503
984.945	515.528
986.016	515.397
987.087	513.994
988.157	511.169
989.227	508.237
990.296	505.444
991.366	503.063
992.435	500.923
993.504	498.993
994.573	497.345
995.641	495.79
996.709	494.943
997.777	494.401
998.844	493.943
999.911	493.411
1000.98	492.228
1002.05	490.979
1003.11	489.449
1004.18	487.696
1005.24	485.615
1006.31	482.86
1007.37	479.834
1008.44	476.764
1009.5	473.545
1010.57	470.564
1011.63	468.234
1012.7	465.93
1013.76	463.605
1014.82	461.586
1015.89	459.134
1016.95	456.696
1018.01	454.382
1019.07	451.969
1020.13	449.97
1021.2	448.449
1022.26	447.546
1023.32	447.073
1024.38	446.777
1025.44	446.316
1026.5	444.879
1027.56	443.139
1028.62	441.497
1029.68	439.274
1030.74	436.296
1031.8	432.375
1032.85	426.471
1033.91	426.251
1034.97	426.828
1036.03	427.844
1037.09	429.213
1038.14	430.905
1039.2	432.964
1040.26	435.408
1041.31	438.354
1042.37	441.685
1043.42	442.761
1044.48	436.472
1045.53	438.655
1046.59	445.67
1047.64	446.2
1048.7	444.61
1049.75	442.968
1050.81	441.335
1051.86	439.831
1052.91	438.976
1053.97	433.922
1055.02	428.284
1056.07	426.494
1057.12	428.113
1058.17	429.854
1059.23	431.254
1060.28	432.073
1061.33	432.148
1062.38	431.796
1063.43	430.936
1064.48	429.337
1065.53	427.579
1066.58	426.75
1067.63	426.15
1068.68	425.383
1069.72	425.046
1070.77	424.618
1071.82	424.146
1072.87	423.553
1073.92	422.763
1074.96	421.689
1076.01	420.501
1077.06	418.986
1078.1	417.36
1079.15	415.428
1080.2	413.212
1081.24	410.859
1082.29	408.238
1083.33	405.561
1084.38	402.629
1085.42	399.79
1086.47	397.345
1087.51	395.845
1088.55	395.298
1089.6	395.603
1090.64	396.175
1091.68	396.892
1092.73	397.645
1093.77	398.039
1094.81	398.367
1095.85	398.694
1096.89	398.851
1097.93	399.203
1098.98	399.53
1100.02	399.849
1101.06	399.782
1102.1	399.518
1103.14	399.056
1104.18	398.393
1105.21	397.745
1106.25	397.041
1107.29	396.391
1108.33	395.627
1109.37	394.664
1110.41	393.414
1111.44	391.895
1112.48	390.506
1113.52	389.113
1114.56	387.94
1115.59	386.759
1116.63	385.989
1117.66	385.464
1118.7	384.767
1119.73	383.518
1120.77	381.876
1121.8	380.303
1122.84	378.844
1123.87	377.457
1124.91	376.272
1125.94	375.194
1126.97	374.39
1128.01	373.813
1129.04	373.391
1130.07	373.229
1131.11	373.324
1132.14	373.839
1133.17	374.614
1134.2	375.871
1135.23	377.834
1136.26	380.667
1137.29	383.743
1138.32	386.991
1139.35	390.164
1140.38	393.757
1141.41	397.82
1142.44	402.385
1143.47	407.013
1144.5	408.93
1145.53	410.123
1146.56	405.31
1147.58	402.464
1148.61	401.009
1149.64	400.898
1150.67	405.598
1151.69	411.163
1152.72	416.466
1153.75	420.191
1154.77	422.424
1155.8	423.078
1156.82	421.037
1157.85	413.466
1158.87	410.123
1159.9	405.601
1160.92	400.499
1161.95	395.159
1162.97	390.082
1163.99	385.049
1165.02	379.95
1166.04	375.327
1167.06	372.012
1168.08	369.432
1169.11	367.507
1170.13	366.931
1171.15	367.262
1172.17	368.17
1173.19	369.589
1174.21	370.796
1175.23	372.424
1176.25	374.136
1177.27	375.97
1178.29	377.562
1179.31	378.695
1180.33	379.671
1181.35	379.731
1182.37	379.125
1183.39	377.862
1184.4	379.828
1185.42	383.605
1186.44	386.296
1187.46	387.942
1188.47	387.691
1189.49	379.92
1190.51	374.831
1191.52	370.265
1192.54	366.392
1193.55	361.721
1194.57	357.352
1195.58	353.338
1196.6	349.727
1197.61	346.599
1198.63	344.031
1199.64	342.275
1200.65	340.941
1201.67	340.113
1202.68	339.918
1203.69	340.646
1204.7	341.802
1205.72	343.373
1206.73	345.082
1207.74	346.231
1208.75	347.228
1209.76	348.035
1210.77	348.585
1211.78	348.755
1212.79	348.125
1213.8	347.045
1214.81	346.331
1215.82	346.307
1216.83	346.52
1217.84	346.72
1218.85	346.92
1219.86	347.044
1220.87	346.869
1221.87	346.728
1222.88	346.521
1223.89	346.097
1224.9	345.332
1225.9	344.209
1226.91	342.805
1227.92	340.851
1228.92	338.011
1229.93	334.807
1230.93	331.421
1231.94	327.989
1232.94	324.935
1233.95	322.048
1234.95	319.427
1235.95	316.942
1236.96	314.59
1237.96	312.496
1238.96	310.808
1239.97	309.79
1240.97	309.264
1241.97	309.722
1242.97	310.706
1243.98	312.219
1244.98	315.512
1245.98	317.467
1246.98	318.008
1247.98	317.381
1248.98	315.705
1249.98	312.96
1250.98	309.322
1251.98	304.909
1252.98	302.761
1253.98	299.295
1254.98	296.671
1255.98	294.705
1256.97	293.02
1257.97	291.941
1258.97	291.713
1259.97	293.361
1260.97	293.463
1261.96	293.337
1262.96	293.142
1263.95	293.096
1264.95	293.469
1265.95	294.164
1266.94	295.174
1267.94	295.388
1268.93	294.581
1269.93	292.739
1270.92	289.337
1271.92	285.824
1272.91	284.073
1273.9	283.512
1274.9	284.369
1275.89	289.372
1276.88	286.373
1277.87	287.406
1278.87	289.499
1279.86	291.785
1280.85	294.239
1281.84	296.897
1282.83	299.548
1283.82	302.079
1284.81	304.545
1285.81	306.687
1286.8	307.561
1287.79	307.232
1288.77	306.027
1289.76	304.714
1290.75	302.939
1291.74	300.058
1292.73	296.041
1293.72	292.274
1294.71	289.152
1295.69	286.512
1296.68	283.971
1297.67	281.94
1298.65	280.453
1299.64	280.945
1300.63	280.237
1301.61	280.273
1302.6	280.269
1303.58	280.6
1304.57	280.841
1305.55	280.868
1306.54	280.541
1307.52	279.689
1308.51	278.32
1309.49	276.535
1310.48	273.925
1311.46	271.51
1312.44	270.131
1313.42	269.409
1314.41	269.344
1315.39	269.977
1316.37	271.216
1317.35	273.117
1318.33	275.724
1319.32	278.975
1320.3	282.689
1321.28	286.823
1322.26	291.074
1323.24	294.657
1324.22	297.938
1325.2	300.394
1326.18	301.873
1327.15	302.28
1328.13	301.392
1329.11	299.352
1330.09	296.426
1331.07	292.53
1332.05	287.772
1333.02	282.709
1334	277.425
1334.98	272.813
1335.95	269.026
1336.93	266.06
1337.91	263.683
1338.88	261.763
1339.86	260.169
1340.83	259.299
1341.81	258.587
1342.78	257.984
1343.76	257.413
1344.73	256.753
1345.7	255.711
1346.68	254.819
1347.65	253.43
1348.62	251.917
1349.6	250.554
1350.57	249.735
1351.54	249.114
1352.51	248.633
1353.49	248.198
1354.46	248.042
1355.43	248.015
1356.4	248.008
1357.37	247.888
1358.34	247.792
1359.31	247.76
1360.28	247.674
1361.25	247.158
1362.22	246.524
1363.19	245.806
1364.16	245.115
1365.12	244.443
1366.09	243.849
1367.06	243.159
1368.03	242.481
1369	241.888
1369.96	241.411
1370.93	240.883
1371.9	240.355
1372.86	239.843
1373.83	239.365
1374.79	238.892
1375.76	238.469
1376.73	238.057
1377.69	237.689
1378.66	237.364
1379.62	237.076
1380.58	236.823
1381.55	236.556
1382.51	236.298
1383.48	236.095
1384.44	235.908
1385.4	235.778
1386.36	235.68
1387.33	235.63
1388.29	235.633
1389.25	235.584
1390.21	235.439
1391.17	234.598
1392.13	233.794
1393.09	232.998
1394.06	231.535
1395.01	229.86
1395.97	228.377
1396.93	227.677
1397.89	226.986
1398.85	226.151
1399.81	224.669
1400.77	223.455
1401.73	222.436
1402.69	221.949
1403.64	221.57
1404.6	221.382
1405.56	221.282
1406.52	221.282
1407.47	221.37
1408.43	221.435
1409.39	221.487
1410.34	221.537
1411.3	221.377
1412.25	221.154
1413.21	220.82
1414.16	220.891
1415.12	221.012
1416.07	221.35
1417.03	220.447
1417.98	219.551
1418.93	218.755
1419.89	218.533
1420.84	218.439
1421.79	218.576
1422.74	218.865
1423.7	219.293
1424.65	219.888
1425.6	220.589
1426.55	221.436
1427.5	222.369
1428.45	223.301
1429.4	224.282
1430.35	225.291
1431.3	226.357
1432.25	227.352
1433.2	228.267
1434.15	229.022
1435.1	229.263
1436.05	229.012
1437	228.718
1437.95	228.039
1438.89	227.055
1439.84	225.982
1440.79	225.088
1441.74	225.351
1442.68	226.358
1443.63	224.935
1444.58	224.076
1445.52	220.483
1446.47	224.118
1447.41	237.871
1448.36	236.775
1449.3	235.485
1450.25	221.107
1451.19	214.201
1452.14	219.276
1453.08	220.077
1454.03	219.523
1454.97	214.209
1455.91	212.174
1456.85	211.892
1457.8	206.287
1458.74	205.926
1459.68	205.515
1460.62	205.708
1461.57	205.928
1462.51	205.112
1463.45	204.481
1464.39	203.829
1465.33	203.199
1466.27	202.563
1467.21	202.021
1468.15	201.543
1469.09	201.14
1470.03	200.802
1470.97	200.552
1471.9	200.33
1472.84	200.248
1473.78	199.973
1474.72	200.163
1475.66	200.56
1476.59	200.934
1477.53	201.401
1478.47	201.804
1479.4	202.208
1480.34	202.563
1481.28	202.877
1482.21	202.844
1483.15	202.855
1484.08	202.823
1485.02	202.595
1485.95	202.264
1486.89	201.777
1487.82	201.004
1488.76	200.143
1489.69	199.175
1490.62	198.164
1491.56	197.287
1492.49	197.455
1493.42	197.478
1494.35	197.326
1495.29	196.992
1496.22	196.164
1497.15	195.297
1498.08	194.466
1499.01	194.013
1499.94	194.253
1500.87	194.587
1501.8	194.919
1502.73	195.37
1503.66	195.673
1504.59	196.18
1505.52	196.814
1506.45	197.767
1507.38	199.257
1508.31	200.334
1509.23	201.278
1510.16	202.576
1511.09	204.309
1512.02	206.705
1512.94	209.649
1513.87	213.274
1514.8	217.454
1515.72	222.202
1516.65	227.913
1517.58	234.195
1518.5	240.716
1519.43	246.527
1520.35	251.995
1521.28	256.858
1522.2	261.811
1523.12	266.16
1524.05	269.694
1524.97	271.968
1525.9	273.111
1526.82	273.159
1527.74	272.205
1528.66	270.225
1529.59	267.215
1530.51	263.326
1531.43	258.731
1532.35	253.49
1533.27	247.814
1534.19	242.247
1535.11	235.579
1536.04	229.164
1536.96	223.165
1537.88	217.72
1538.8	212.717
1539.71	208.484
1540.63	204.927
1541.55	201.995
1542.47	199.722
1543.39	198.038
1544.31	197.17
1545.23	196.833
1546.14	196.815
1547.06	197.124
1547.98	197.596
1548.89	197.564
1549.81	197.69
1550.73	197.904
1551.64	197.863
1552.56	197.459
1553.47	196.518
1554.39	194.931
1555.31	192.989
1556.22	190.664
1557.13	188.144
1558.05	185.15
1558.96	183.104
1559.88	181.212
1560.79	179.49
1561.7	177.741
1562.62	176.512
1563.53	175.418
1564.44	174.416
1565.35	173.579
1566.27	172.836
1567.18	172.255
1568.09	171.683
1569	171.236
1569.91	170.809
1570.82	170.222
1571.73	169.705
1572.64	169.268
1573.55	168.91
1574.46	168.551
1575.37	168.209
1576.28	167.934
1577.19	167.672
1578.1	167.488
1579	167.244
1579.91	167.107
1580.82	167.265
1581.73	167.469
1582.63	167.27
1583.54	167.007
1584.45	166.684
1585.35	166.438
1586.26	166.365
1587.17	166.43
1588.07	166.768
1588.98	167.096
1589.88	167.588
1590.79	168.31
1591.69	168.832
1592.6	168.863
1593.5	168.901
1594.4	168.181
1595.31	165.172
1596.21	163.22
1597.11	161.418
1598.02	162.007
1598.92	166.486
1599.82	170.065
1600.72	170.683
1601.63	170.466
1602.53	170.561
1603.43	171.051
1604.33	171.656
1605.23	171.854
1606.13	171.802
1607.03	171.824
1607.93	171.865
1608.83	171.905
1609.73	171.974
1610.63	171.806
1611.53	171.254
1612.43	170.331
1613.32	169.276
1614.22	168.423
1615.12	167.879
1616.02	167.592
1616.92	167.575
1617.81	167.855
1618.71	168.4
1619.61	169.224
1620.5	170.548
1621.4	171.133
1622.29	171.228
1623.19	170.931
1624.08	170.245
1624.98	169.28
1625.87	168.427
1626.77	167.799
1627.66	167.267
1628.56	166.766
1629.45	165.964
1630.34	164.754
1631.24	163.566
1632.13	162.773
1632.84	162.301
1633.77	161.628
1634.7	161.218
1635.63	161.09
1636.56	161.002
1637.49	160.731
1638.42	160.308
1639.34	159.889
1640.27	159.351
1641.2	158.979
1642.13	158.768
1643.05	159.342
1643.98	160.133
1644.91	161.266
1645.83	161.326
1646.76	161.106
1647.68	160.703
1648.61	160.319
1649.54	160.059
1650.46	159.737
1651.39	159.485
1652.31	159.193
1653.23	158.929
1654.16	158.676
1655.08	158.448
1656.01	158.257
1656.93	158.106
1657.85	158.005
1658.78	157.989
1659.7	157.728
1660.62	158.183
1661.54	159.37
1662.47	159.576
1663.39	160.016
1664.31	160.383
1665.23	160.753
1666.15	160.859
1667.07	160.918
1667.99	160.396
1668.92	160.045
1669.84	159.658
1670.76	159.297
1671.68	158.895
1672.6	158.466
1673.52	158.034
1674.43	157.526
1675.35	157.123
1676.27	156.539
1677.19	155.854
1678.11	155.073
1679.03	154.145
1679.95	152.967
1680.86	151.565
1681.78	150.251
1682.7	149.192
1683.61	149.064
1684.53	149.204
1685.45	149.591
1686.36	150.28
1687.28	151.14
1688.2	151.974
1689.11	152.536
1690.03	152.75
1690.94	152.514
1691.86	151.533
1692.77	148.826
1693.69	148.051
1694.6	147.165
1695.52	145.946
1696.43	144.773
1697.34	143.706
1698.26	142.803
1699.17	142.415
1700.08	142.251
1700.99	142.111
1701.91	141.939
1702.82	141.404
1703.73	140.35
1704.64	139.818
1705.55	139.354
1706.47	139.196
1707.38	139.069
1708.29	139.081
1709.2	138.932
1710.11	138.675
1711.02	138.48
1711.93	138.298
1712.84	138.17
1713.75	138.052
1714.66	138.02
1715.57	137.952
1716.48	137.854
1717.39	138.154
1718.29	138.571
1719.2	139.156
1720.11	139.861
1721.02	140.491
1721.93	141.117
1722.83	141.713
1723.74	142.123
1724.65	142
1725.55	141.829
1726.46	141.459
1727.37	140.936
1728.27	140.294
1729.18	139.869
1730.08	139.27
1730.99	138.318
1731.89	135.68
1732.8	133.164
1733.7	131.062
1734.61	129.819
1735.51	129.052
1736.42	129.711
1737.32	131.147
1738.22	132.143
1739.13	132.639
1740.03	132.375
1740.93	130.899
1741.83	133.678
1742.74	134.657
1743.64	135.43
1744.54	136.069
1745.44	136.032
1746.34	135.988
1747.24	135.684
1748.15	135.094
1749.05	134.51
1749.95	133.986
1750.85	133.55
1751.75	133.158
1752.65	133.154
1753.55	132.758
1754.45	131.72
1755.35	130.72
1756.25	129.779
1757.14	128.949
1758.04	128.577
1758.94	128.538
1759.84	128.86
1760.74	129.219
1761.63	129.031
1762.53	127.852
1763.43	126.715
1764.33	125.655
1765.22	124.765
1766.12	124.228
1767.02	124.25
1767.91	124.525
1768.81	125.131
1769.7	126.062
1770.6	127.109
1771.49	127.626
1772.39	127.876
1773.28	126.775
1774.18	125.702
1775.07	124.982
1775.97	124.304
1776.86	123.725
1777.75	123.243
1778.65	122.86
1779.54	122.504
1780.43	122.107
1781.33	122.081
1782.22	122.127
1783.11	122.176
1784	121.934
1784.89	121.824
1785.79	121.792
1786.68	121.817
1787.57	121.88
1788.46	121.968
1789.35	121.211
1790.24	120.511
1791.13	119.826
1792.02	119.119
1792.91	118.399
1793.8	117.725
1794.69	117.046
1795.58	116.476
1796.47	116.768
1797.36	116.648
1798.25	116.584
1799.13	116.637
