Acq. time (s)=	15
Accumulations=	2
Range (cm-¹)=	600...1800
Windows=	2
Autofocus=	Off
AutoExposure=	Off
Spike filter=	Multiple accum.
Delay time (s)=	1
Binning=	1
Readout mode=	Signal
DeNoise=	Standard
ICS correction=	Off
Dark correction=	Off
Inst. Process=	Off
Instrument=	XploRA
Detector=	Syncerity
Objective=	x20LWD
Grating=	1200 gr/mm
Filter=	25%
Laser (nm)=	785 
Slit (µm)=	100 
Hole (µm)=	300 
Laser pol=	None
Raman pol=	None
Output=	Camera
StageXY=	Marzhauser
StageZ=	
X (µm)=	-3529.2
Y (µm)=	1554.1
Project=	
Sample=	
Site=	
Title=	To8
Remark=	
Date=	28.10.2022 21:24
Acquired=	28.10.2022 21:24:20
600.839	780.117
602.009	794.046
603.178	808.762
604.347	820.303
605.516	832.573
606.684	846.453
607.852	859.281
609.02	870.433
610.187	880.135
611.355	888.7
612.521	896.251
613.688	903.402
614.854	909.225
616.02	914.3
617.185	918.824
618.351	922.596
619.516	926.322
620.681	929.97
621.846	933.631
623.009	937.159
624.174	940.767
625.337	944.601
626.501	948.537
627.664	952.643
628.826	957.467
629.988	961.961
631.151	965.954
632.313	968.608
633.474	970.805
634.635	972.175
635.797	972.914
636.958	973.005
638.117	972.598
639.278	971.661
640.437	970.9
641.597	972.021
642.756	973.156
643.915	974.297
645.074	975.681
646.233	977.537
647.391	979.526
648.548	981.947
649.706	984.782
650.863	988.815
652.02	993.557
653.176	998.134
654.333	1002.15
655.489	1005.88
656.645	1009.6
657.8	1013.06
658.955	1016.91
660.11	1019.23
661.264	1020.7
662.419	1021.54
663.573	1022.22
664.727	1022.34
665.88	1019.4
667.033	1016.88
668.186	1014.97
669.338	1014
670.491	1014.04
671.643	1015.41
672.794	1017.62
673.945	1021.15
675.096	1022.38
676.247	1023.31
677.398	1023.89
678.548	1024.02
679.698	1024.26
680.847	1025.59
681.997	1027.87
683.146	1029.75
684.294	1031.45
685.443	1032.6
686.591	1033.37
687.739	1035.1
688.887	1036.15
690.034	1037.17
691.181	1038.37
692.328	1040.82
693.474	1041.32
694.62	1042.23
695.766	1042.06
696.911	1041.5
698.057	1039.17
699.202	1034.76
700.346	1031.28
701.49	1029.38
702.635	1028.42
703.779	1028.45
704.922	1032.45
706.065	1029.99
707.208	1026.74
708.351	1023.62
709.493	1018.03
710.635	1017.33
711.776	1008.39
712.918	1002.8
714.059	997.312
715.2	994.964
716.341	996.819
717.481	1003.05
718.621	1003.84
719.761	1005.91
720.9	1006.71
722.04	1009.03
723.178	1010.64
724.317	1011.96
725.455	1013.49
726.594	1015.31
727.731	1017.37
728.868	1019.82
730.005	1018.44
731.142	1022.15
732.279	1023.24
733.415	1023.54
734.551	1024.11
735.686	1025.36
736.822	1027.03
737.957	1028.89
739.092	1030.96
740.226	1031.11
741.36	1028.98
742.495	1025.48
743.628	1022.43
744.762	1018.37
745.895	1013.11
747.027	1010.07
748.16	1007.32
749.292	1004.54
750.423	1002.33
751.555	999.383
752.686	994.601
753.817	988.847
754.949	982.308
756.079	976.158
757.209	971.368
758.339	966.358
759.469	964.069
760.597	960.523
761.727	955.446
762.856	949.49
763.984	944.186
765.112	939.344
766.24	935.567
767.367	932.138
768.494	930.047
769.622	930.503
770.749	929.264
771.874	927.461
773.001	925.265
774.127	923.061
775.253	920.326
776.377	917.298
777.503	914.04
778.627	908.835
779.751	903.27
780.876	897.986
782	892.894
783.123	888.037
784.246	883.039
785.37	879.884
786.492	878.028
787.614	876.951
788.737	876.291
789.858	875.396
790.979	877.283
792.101	878.903
793.222	879.602
794.342	879.76
795.463	879.878
796.583	877.793
797.702	873.839
798.822	870.655
799.942	866.797
801.06	862.664
802.179	858.758
803.297	856.013
804.415	854.996
805.533	854.692
806.651	854.146
807.768	853.6
808.885	852.849
810.001	851.928
811.118	850.596
812.233	849.199
813.349	847.605
814.464	845.802
815.58	843.614
816.695	840.696
817.809	837.096
818.924	834.09
820.038	831.124
821.152	830.197
822.265	830.177
823.378	830.215
824.491	830.641
825.604	831.415
826.716	832.27
827.828	832.176
828.94	831.849
830.051	831.196
831.162	830.517
832.273	829.65
833.383	826.427
834.494	822.891
835.604	819.928
836.714	817.148
837.823	814.714
838.932	812.277
840.041	809.972
841.15	808.39
842.258	807.918
843.366	806.979
844.474	806.83
845.581	809.303
846.688	809.72
847.795	808.847
848.901	807.08
850.008	803.602
851.115	801.761
852.22	798.815
853.325	796.156
854.43	793.55
855.536	791.172
856.64	789.128
857.745	786.989
858.848	785.476
859.952	783.46
861.055	781.277
862.158	779.92
863.261	778.928
864.364	779.119
865.466	779.896
866.568	780.236
867.67	779.859
868.771	779.597
869.873	779.151
870.973	777.336
872.074	773.021
873.174	765.734
874.274	760.293
875.374	757.201
876.473	754.336
877.572	752.26
878.671	750.537
879.77	749.769
880.868	750.229
881.966	753.238
883.064	755.275
884.161	754.68
885.258	754.105
886.356	753.22
887.452	751.852
888.548	749.825
889.645	747.832
890.74	746.624
891.836	745.794
892.931	745.294
894.025	745.31
895.12	745.532
896.214	745.829
897.308	745.941
898.402	746.137
899.495	745.478
900.588	744.805
901.681	744.244
902.774	743.932
903.866	744.338
904.958	745.016
906.05	746.153
907.142	747.454
908.233	748.926
909.324	750.515
910.414	751.905
911.504	753.008
912.594	754.305
913.684	755.473
914.774	756.328
915.863	757.154
916.952	756.171
918.041	748.903
919.129	742.611
920.217	736.053
921.305	725.759
922.392	717.976
923.48	709.958
924.567	703.023
925.653	697.214
926.74	693.881
927.825	699.976
928.911	697.116
929.997	695.437
931.082	693.941
932.166	693.479
933.252	694.114
934.336	694.687
935.42	693.908
936.504	691.645
937.587	686.686
938.671	682.947
939.753	680.963
940.836	679.718
941.919	678.24
943	677.987
944.082	679.642
945.163	680.214
946.245	679.967
947.326	679.129
948.406	678.113
949.487	676.859
950.567	675.339
951.647	673.281
952.727	671.538
953.805	669.652
954.885	667.236
955.964	664.692
957.042	662.613
958.12	660.946
959.198	658.717
960.276	655.848
961.352	652.415
962.43	648.78
963.507	645.854
964.583	643.068
965.659	640.783
966.735	639.041
967.81	637.642
968.885	638.084
969.961	639.5
971.036	642.01
972.11	644.872
973.184	647.524
974.258	650.81
975.332	655.021
976.405	659.402
977.478	661.454
978.551	664.667
979.624	665.89
980.696	666.59
981.767	669.307
982.839	672.49
983.911	673.864
984.982	672.656
986.052	670.758
987.123	667.336
988.193	665.184
989.263	662.628
990.333	661.623
991.403	661.017
992.471	660.408
993.54	660.199
994.608	661.726
995.677	663.259
996.745	661.744
997.812	658.145
998.88	654.763
999.947	651.445
1001.01	649.605
1002.08	645.678
1003.15	641.46
1004.21	637.319
1005.28	633.284
1006.34	629.446
1007.41	625.717
1008.47	622.228
1009.54	618.823
1010.6	615.549
1011.67	612.459
1012.73	609.577
1013.79	606.817
1014.86	604.232
1015.92	601.735
1016.98	599.409
1018.05	597.115
1019.11	595.167
1020.17	593.368
1021.23	591.535
1022.29	589.588
1023.35	586.52
1024.41	584.091
1025.47	581.527
1026.53	578.327
1027.59	575.779
1028.65	572.904
1029.71	570.702
1030.77	570.505
1031.83	571.344
1032.89	571.705
1033.95	569.989
1035	568.975
1036.06	569.083
1037.12	568.976
1038.18	567.743
1039.23	566.33
1040.29	565.789
1041.35	565.692
1042.4	565.821
1043.46	570.191
1044.51	570.52
1045.57	571.214
1046.62	571.535
1047.68	571.969
1048.73	571.078
1049.79	566.557
1050.84	563.748
1051.89	561.303
1052.95	559.26
1054	557.281
1055.05	554.511
1056.1	553.249
1057.16	552.484
1058.21	551.779
1059.26	551.021
1060.31	550.571
1061.36	551.031
1062.41	550.52
1063.46	550.06
1064.51	549.865
1065.56	549.096
1066.61	546.969
1067.66	544.339
1068.71	541.445
1069.76	538.617
1070.81	536.951
1071.85	535.209
1072.9	533.052
1073.95	532.206
1075	532.448
1076.04	532.896
1077.09	534.046
1078.14	534.445
1079.18	534.839
1080.23	534.592
1081.27	533.253
1082.32	533.639
1083.36	532.428
1084.41	530.638
1085.45	528.352
1086.5	525.142
1087.54	521.46
1088.59	517.376
1089.63	513.357
1090.67	510.533
1091.71	508.52
1092.76	507.586
1093.8	507.638
1094.84	508.429
1095.88	507.903
1096.92	507.579
1097.97	508.308
1099.01	509.104
1100.05	509.376
1101.09	510.362
1102.13	510.961
1103.17	511.994
1104.21	513.064
1105.25	513.968
1106.28	517.705
1107.32	518.172
1108.36	516.27
1109.4	514.321
1110.44	512.045
1111.47	509.467
1112.51	506.609
1113.55	503.414
1114.59	499.888
1115.62	496.639
1116.66	494.481
1117.69	492.351
1118.73	490.336
1119.77	488.757
1120.8	486.842
1121.84	485.847
1122.87	485.349
1123.9	486.782
1124.94	487.281
1125.97	488.107
1127	490.168
1128.04	491.562
1129.07	492.608
1130.1	494.032
1131.13	495.118
1132.17	494.695
1133.2	498.596
1134.23	503.139
1135.26	508.198
1136.29	514.874
1137.32	521.249
1138.35	526.475
1139.38	531.018
1140.41	534.939
1141.44	538.268
1142.47	539.554
1143.5	541.195
1144.53	542.194
1145.56	543.372
1146.59	545.861
1147.61	548.599
1148.64	551.827
1149.67	555.6
1150.7	559.632
1151.72	565.512
1152.75	566.68
1153.77	566.235
1154.8	564.13
1155.83	559.977
1156.85	552.865
1157.88	543.775
1158.9	533.842
1159.93	523.366
1160.95	511.165
1161.97	500.919
1163	491.67
1164.02	484.418
1165.04	481.06
1166.07	475.998
1167.09	471.693
1168.11	470.91
1169.13	468.378
1170.16	467.23
1171.18	467.966
1172.2	470.38
1173.22	474.354
1174.24	478.898
1175.26	484.53
1176.28	489.898
1177.3	489.478
1178.32	490.006
1179.34	490.989
1180.36	493.744
1181.38	496.207
1182.4	497.909
1183.41	499.067
1184.43	499.52
1185.45	499.289
1186.47	498.232
1187.48	494.481
1188.5	488.43
1189.52	482.781
1190.53	477.549
1191.55	474.179
1192.56	470.886
1193.58	467.1
1194.59	463.989
1195.61	460.62
1196.62	456.412
1197.64	452.558
1198.65	449.316
1199.67	446.853
1200.68	444.527
1201.69	443.997
1202.71	444.747
1203.72	445.722
1204.73	446.587
1205.74	447.782
1206.76	448.896
1207.77	449.575
1208.78	450.575
1209.79	450.604
1210.8	450.789
1211.81	450.996
1212.82	451.542
1213.83	452.217
1214.84	453.166
1215.85	454.828
1216.86	456.159
1217.87	456.213
1218.88	456.494
1219.88	456.952
1220.89	456.352
1221.9	455.817
1222.91	454.747
1223.92	452.977
1224.92	450.285
1225.93	447.19
1226.93	443.385
1227.94	439.648
1228.95	435.433
1229.95	430.006
1230.96	425.545
1231.96	421.487
1232.97	417.577
1233.97	414.067
1234.98	411.536
1235.98	409.589
1236.98	406.854
1237.99	404.328
1238.99	402.184
1239.99	400.002
1241	397.814
1242	395.171
1243	392.364
1244	389.176
1245	386.536
1246	384.539
1247.01	383.866
1248.01	382.887
1249.01	382.336
1250.01	381.858
1251.01	382.504
1252.01	384.371
1253	385.948
1254	388.364
1255	390.19
1256	391.069
1257	390.991
1258	391.473
1258.99	392.121
1259.99	391.822
1260.99	390.39
1261.99	388.591
1262.98	386.882
1263.98	383.624
1264.98	381.067
1265.97	378.881
1266.97	376.774
1267.96	373.953
1268.96	372.273
1269.95	370.994
1270.95	370.463
1271.94	370.014
1272.93	370.44
1273.93	370.748
1274.92	371.458
1275.91	371.76
1276.91	373.287
1277.9	374.509
1278.89	376.63
1279.88	378.978
1280.87	381.659
1281.87	384.694
1282.86	387.169
1283.85	387.913
1284.84	388.202
1285.83	386.98
1286.82	384.949
1287.81	382.881
1288.8	380.489
1289.79	377.828
1290.78	375.217
1291.76	372.827
1292.75	370.28
1293.74	366.696
1294.73	363.587
1295.72	361.027
1296.7	358.177
1297.69	355.608
1298.68	351.681
1299.66	351.623
1300.65	352.259
1301.64	354.365
1302.62	356.455
1303.61	359.125
1304.59	361.639
1305.58	361.022
1306.56	359.496
1307.55	357.529
1308.53	355.605
1309.51	353.95
1310.5	352.643
1311.48	351.795
1312.46	351.393
1313.45	351.048
1314.43	350.796
1315.41	352.165
1316.39	357.716
1317.38	363.71
1318.36	368.861
1319.34	374.001
1320.32	379.633
1321.3	386.09
1322.28	390.724
1323.26	396.78
1324.24	399.159
1325.22	399.62
1326.2	396.595
1327.18	389.605
1328.16	381.159
1329.13	375.291
1330.11	367.214
1331.09	359.186
1332.07	352.836
1333.04	347.294
1334.02	342.573
1335	339.495
1335.97	340.226
1336.95	337.25
1337.93	333.924
1338.9	331.101
1339.88	328.522
1340.85	326.357
1341.83	324.597
1342.8	321.837
1343.78	319.546
1344.75	317.791
1345.72	317.214
1346.7	317.164
1347.67	318.182
1348.65	319.531
1349.62	321.397
1350.59	323.435
1351.56	325.641
1352.53	327.32
1353.51	328.051
1354.48	327.419
1355.45	326.67
1356.42	325.376
1357.39	323.71
1358.36	321.591
1359.33	319.468
1360.3	317.141
1361.27	314.254
1362.24	311.379
1363.21	308.049
1364.18	305.781
1365.14	304.102
1366.11	303.288
1367.08	302.776
1368.05	302.475
1369.02	302.416
1369.98	302.873
1370.95	303.185
1371.92	303.662
1372.88	304.001
1373.85	303.961
1374.81	304.382
1375.78	305.37
1376.74	306.501
1377.71	307.121
1378.68	307.659
1379.64	308.222
1380.6	308.335
1381.57	307.954
1382.53	307.568
1383.49	309.742
1384.46	308.474
1385.42	306.454
1386.38	304.169
1387.34	300.548
1388.31	297.843
1389.27	295.073
1390.23	293.244
1391.19	291.613
1392.15	290.385
1393.11	288.93
1394.07	288.101
1395.03	287.453
1395.99	287.217
1396.95	286.016
1397.91	283.37
1398.87	281.965
1399.83	280.327
1400.79	279.44
1401.75	279.784
1402.7	277.93
1403.66	280.69
1404.62	281.47
1405.58	281.336
1406.53	281.09
1407.49	281.475
1408.45	282.095
1409.4	282.614
1410.36	283.107
1411.31	282.581
1412.27	281.779
1413.23	280.983
1414.18	279.838
1415.13	278.131
1416.09	276.535
1417.04	274.829
1418	273.048
1418.95	271.73
1419.9	271.393
1420.86	271.847
1421.81	271.928
1422.76	273.188
1423.71	274.616
1424.67	276.888
1425.62	278.571
1426.57	278.92
1427.52	280.187
1428.47	282.218
1429.42	284.857
1430.37	287.984
1431.32	290.689
1432.27	291.462
1433.22	291.778
1434.17	291.913
1435.12	290.462
1436.07	288.479
1437.02	286.478
1437.96	284.738
1438.91	282.893
1439.86	281.569
1440.81	281.123
1441.75	281.005
1442.7	281.059
1443.65	280.62
1444.59	279.736
1445.54	278.483
1446.49	276.711
1447.43	275.775
1448.38	274.448
1449.32	273.194
1450.27	271.835
1451.21	270.728
1452.15	269.195
1453.1	267.615
1454.04	265.434
1454.98	264.458
1455.93	263.278
1456.87	262.395
1457.81	261.475
1458.76	260.814
1459.7	260.375
1460.64	260.107
1461.58	259.594
1462.52	258.396
1463.46	257.382
1464.4	256.927
1465.34	256.839
1466.28	257.068
1467.22	257.549
1468.16	258.637
1469.1	260.223
1470.04	262.391
1470.98	262.574
1471.92	262.748
1472.86	262.732
1473.8	262.746
1474.73	262.203
1475.67	261.784
1476.61	261.044
1477.55	260.703
1478.48	260.189
1479.42	259.15
1480.36	259.266
1481.29	259.669
1482.23	260.107
1483.16	260.877
1484.1	261.552
1485.03	262.077
1485.97	262.101
1486.9	261.677
1487.84	260.638
1488.77	260.134
1489.7	259.501
1490.64	259.213
1491.57	258.095
1492.5	256.716
1493.44	254.182
1494.37	252.042
1495.3	250.955
1496.23	250.489
1497.16	250.818
1498.09	250.089
1499.02	250.052
1499.96	249.953
1500.89	248.5
1501.82	249.14
1502.75	250.436
1503.68	252.22
1504.61	254.089
1505.53	256.275
1506.46	258.773
1507.39	262.714
1508.32	266.671
1509.25	271.168
1510.18	276.331
1511.1	282.174
1512.03	288.342
1512.96	294.538
1513.88	301.076
1514.81	308.165
1515.74	314.29
1516.66	321.669
1517.59	329.807
1518.51	337.726
1519.44	346.599
1520.36	353.992
1521.29	359.798
1522.21	364.5
1523.14	367.544
1524.06	368.268
1524.98	367.675
1525.91	362.951
1526.83	357.879
1527.75	350.785
1528.68	343.693
1529.6	337.512
1530.52	331.03
1531.44	323.303
1532.36	314.387
1533.29	305.925
1534.21	296.672
1535.13	286.555
1536.05	276.351
1536.97	270.323
1537.89	263.479
1538.81	257.632
1539.73	254.228
1540.65	251.623
1541.56	250.582
1542.48	251.972
1543.4	251.893
1544.32	253.292
1545.24	254.937
1546.16	256.233
1547.07	256.881
1547.99	256.848
1548.91	254.973
1549.82	254.861
1550.74	254.101
1551.66	252.808
1552.57	251.02
1553.49	248.57
1554.4	244.903
1555.32	240.737
1556.23	237.602
1557.15	234.683
1558.06	232.185
1558.97	229.303
1559.89	226.775
1560.8	225.265
1561.71	222.908
1562.63	220.765
1563.54	219.121
1564.45	217.72
1565.36	216.608
1566.28	215.59
1567.19	214.832
1568.1	214.025
1569.01	212.903
1569.92	211.734
1570.83	210.197
1571.74	208.413
1572.65	207.628
1573.56	207.627
1574.47	209.282
1575.38	209.515
1576.29	209.666
1577.2	209.022
1578.11	208.645
1579.01	208.361
1579.92	208.353
1580.83	208.35
1581.74	208.355
1582.64	208.698
1583.55	209.25
1584.46	209.825
1585.36	210.55
1586.27	211.204
1587.18	212.111
1588.08	212.471
1588.99	212.885
1589.89	213.563
1590.8	214.17
1591.7	214.588
1592.61	214.999
1593.51	215.279
1594.41	215.518
1595.32	215.653
1596.22	215.607
1597.12	215.666
1598.03	215.77
1598.93	216.161
1599.83	216.606
1600.73	217.042
1601.64	217.683
1602.54	218.262
1603.44	218.425
1604.34	218.67
1605.24	219.157
1606.14	219.569
1607.04	219.635
1607.94	219.365
1608.84	218.807
1609.74	218.089
1610.64	216.712
1611.54	215.12
1612.44	213.86
1613.33	212.484
1614.23	211.527
1615.13	210.459
1616.03	209.783
1616.92	209.137
1617.82	208.597
1618.72	208.318
1619.61	208.461
1620.51	208.921
1621.41	210.018
1622.3	210.937
1623.2	211.92
1624.09	212.85
1624.99	212.953
1625.88	212.673
1626.78	212.232
1627.67	211.58
1628.57	210.931
1629.46	210.331
1630.35	209.656
1631.25	208.852
1632.14	208.595
1632.85	209.463
1633.78	209.182
1634.71	209.149
1635.64	208.958
1636.57	208.144
1637.5	207.236
1638.42	206.599
1639.35	205.972
1640.28	205.252
1641.21	204.68
1642.13	204.184
1643.06	203.759
1643.99	201.692
1644.91	200.361
1645.84	200.79
1646.77	202.652
1647.69	203.745
1648.62	205.445
1649.54	207.157
1650.47	208.037
1651.39	208.064
1652.32	208.009
1653.24	208.685
1654.17	208.746
1655.09	203.71
1656.01	201.303
1656.94	199.378
1657.86	198.369
1658.78	197.268
1659.71	196.901
1660.63	196.008
1661.55	195.704
1662.47	195.32
1663.4	194.825
1664.32	194.898
1665.24	194.99
1666.16	194.971
1667.08	194.498
1668	194.2
1668.92	193.951
1669.84	193.959
1670.76	193.488
1671.68	193.137
1672.6	192.939
1673.52	192.76
1674.44	192.717
1675.36	192.478
1676.28	191.807
1677.2	191.744
1678.12	191.573
1679.03	191.933
1679.95	192.591
1680.87	192.961
1681.79	192.575
1682.7	192.401
1683.62	191.836
1684.54	191.281
1685.45	191.034
1686.37	190.9
1687.29	190.967
1688.2	191.194
1689.12	191.103
1690.03	190.645
1690.95	189.652
1691.86	188.695
1692.78	186.484
1693.69	185.466
1694.61	184.618
1695.52	183.955
1696.43	183.172
1697.35	182.69
1698.26	182.1
1699.17	181.695
1700.09	180.929
1701	180.062
1701.91	178.681
1702.82	177.035
1703.74	175.564
1704.65	174.763
1705.56	174.251
1706.47	173.296
1707.38	173.276
1708.29	172.857
1709.2	172.882
1710.11	173.788
1711.02	174.615
1711.93	176.341
1712.84	177.822
1713.75	179.294
1714.66	180.955
1715.57	182.327
1716.48	182.899
1717.39	182.029
1718.3	181.536
1719.21	181.198
1720.11	181.149
1721.02	179.696
1721.93	177.202
1722.84	174.669
1723.74	172.908
1724.65	171.665
1725.56	170.631
1726.46	169.604
1727.37	168.696
1728.28	168.352
1729.18	168.001
1730.09	167.672
1730.99	167.701
1731.9	167.883
1732.8	169.391
1733.71	168.953
1734.61	167.98
1735.52	166.836
1736.42	165.232
1737.32	163.675
1738.23	164.016
1739.13	164.402
1740.03	164.8
1740.94	165.321
1741.84	166.794
1742.74	169.142
1743.64	170.158
1744.54	171.598
1745.45	171.448
1746.35	170.102
1747.25	169.314
1748.15	167.479
1749.05	166.062
1749.95	164.011
1750.85	163.005
1751.75	163.54
1752.65	163.358
1753.55	163.438
1754.45	163.52
1755.35	163.446
1756.25	163.731
1757.15	163.275
1758.05	163.366
1758.94	163.192
1759.84	162.618
1760.74	162.486
1761.64	162.777
1762.53	162.499
1763.43	162.382
1764.33	162.368
1765.23	161.995
1766.12	161.797
1767.02	161.816
1767.91	162.529
1768.81	163.45
1769.71	164.285
1770.6	164.279
1771.5	164.135
1772.39	163.666
1773.29	163.576
1774.18	163.521
1775.07	163.282
1775.97	163.632
1776.86	163.186
1777.76	162.63
1778.65	162.006
1779.54	161.567
1780.44	160.631
1781.33	159.433
1782.22	158.342
1783.11	157.157
1784.01	156.367
1784.9	155.96
1785.79	155.701
1786.68	155.462
1787.57	155.079
1788.46	154.996
1789.35	155.09
1790.24	155.013
1791.13	155.406
1792.02	156.559
1792.91	157.511
1793.8	157.791
1794.69	156.941
1795.58	155.713
1796.47	154.536
1797.36	152.639
1798.25	151.159
1799.14	147.194
