Acq. time (s)=	15
Accumulations=	2
Range (cm-¹)=	600...1800
Windows=	2
Autofocus=	Off
AutoExposure=	On
Spike filter=	Multiple accum.
Delay time (s)=	1
Binning=	1
Readout mode=	Signal
DeNoise=	Standard
ICS correction=	Off
Dark correction=	Off
Inst. Process=	Off
Instrument=	XploRA
Detector=	Syncerity
Objective=	x20LWD
Grating=	1200 gr/mm
Filter=	25%
Laser (nm)=	785 
Slit (µm)=	100 
Hole (µm)=	300 
Laser pol=	None
Raman pol=	None
Output=	Camera
StageXY=	Marzhauser
StageZ=	
X (µm)=	-11436.4
Y (µm)=	-91.1
Project=	
Sample=	
Site=	
Title=	To4-T
Remark=	
Date=	14.10.2022 20:21
Acquired=	14.10.2022 20:21:20
600.787	812.668
601.956	820.387
603.126	827.93
604.294	837.093
605.463	846.198
606.631	854.965
607.8	863.066
608.967	870.534
610.135	877.527
611.302	884.256
612.468	890.149
613.635	894.983
614.802	899.339
615.968	903.151
617.133	906.606
618.299	909.809
619.464	913.563
620.629	916.992
621.793	920.331
622.958	923.295
624.121	925.891
625.285	927.994
626.448	929.54
627.612	930.961
628.774	931.595
629.937	932.045
631.099	932.222
632.261	932.235
633.423	932.153
634.584	932.167
635.745	932.205
636.906	932.438
638.066	932.652
639.227	933.139
640.386	933.494
641.546	934
642.705	934.562
643.864	935.21
645.023	935.772
646.181	935.91
647.339	935.073
648.497	934.617
649.655	934.893
650.812	936.18
651.969	937.783
653.125	939.229
654.282	940.875
655.438	942.317
656.593	943.744
657.75	945.051
658.905	945.908
660.059	946.299
661.214	946.372
662.368	946.092
663.522	945.26
664.676	944.162
665.83	942.987
666.983	942.66
668.136	943.683
669.288	945.072
670.441	946.571
671.592	948.14
672.744	949.917
673.895	951.753
675.046	952.717
676.197	952.142
677.348	951.173
678.498	949.767
679.648	948.325
680.798	946.809
681.947	945.663
683.096	944.461
684.245	943.49
685.394	942.792
686.542	942.085
687.69	941.794
688.837	942.015
689.984	943.041
691.132	945.968
692.278	949.56
693.425	951.4
694.571	954.527
695.717	957.531
696.863	960.164
698.008	961.365
699.152	961.822
700.298	961.06
701.442	959.264
702.586	956.961
703.73	956.463
704.873	955.916
706.017	953.109
707.16	948.93
708.302	943.877
709.445	937.434
710.586	932.125
711.729	928.126
712.87	925.115
714.012	922.973
715.152	921.847
716.293	921.913
717.433	923.287
718.573	924.919
719.713	925.131
720.853	924.628
721.991	923.489
723.131	920.753
724.269	917.008
725.408	915.102
726.545	913.647
727.683	912.524
728.821	909.934
729.958	907.396
731.095	908.078
732.231	909.886
733.368	912.749
734.503	916.375
735.639	921.026
736.775	926.129
737.91	931.7
739.045	937.126
740.179	941.98
741.313	945.756
742.447	948.436
743.581	949.81
744.714	949.835
745.847	948.337
746.98	945.669
748.113	940.079
749.245	933.631
750.377	926.704
751.509	919.836
752.64	914.267
753.771	908.708
754.902	903.745
756.033	898.925
757.163	894.423
758.293	890.031
759.423	885.785
760.551	881.617
761.681	876.501
762.81	872.18
763.938	870.296
765.066	867.973
766.194	864.978
767.321	862.14
768.449	859.194
769.576	856.284
770.703	853.332
771.83	850.944
772.955	849.124
774.081	847.595
775.207	846.259
776.332	844.795
777.457	842.843
778.582	840.71
779.707	838.087
780.831	834.911
781.954	833.766
783.078	833.193
784.201	833.107
785.324	830.915
786.447	827.389
787.569	823.849
788.691	820.99
789.813	819.028
790.935	818.961
792.056	819.468
793.177	817.454
794.297	817.291
795.418	818.604
796.539	813.145
797.658	807.104
798.777	800.897
799.897	794.781
801.016	790.174
802.134	785.76
803.253	781.973
804.371	778.82
805.489	776.476
806.606	774.677
807.723	773.529
808.84	772.922
809.957	773.626
811.073	774.621
812.19	775.768
813.305	776.572
814.421	776.781
815.536	776.546
816.651	775.896
817.766	774.672
818.88	772.986
819.994	771.111
821.108	769.093
822.221	766.974
823.335	765.238
824.448	763.595
825.56	762.201
826.673	761.009
827.784	760.176
828.897	759.722
830.008	759.563
831.119	760.031
832.23	760.693
833.341	761.491
834.451	762.253
835.561	762.671
836.671	761.903
837.78	761.566
838.89	761.073
839.998	760.54
841.108	759.815
842.216	759.127
843.324	758.198
844.431	756.81
845.539	755.218
846.646	753.402
847.753	751.368
848.859	748.898
849.966	746.258
851.071	740.166
852.178	737.448
853.283	734.809
854.388	732.204
855.494	729.759
856.598	727.527
857.703	725.184
858.806	722.669
859.91	720.21
861.014	717.746
862.116	715.363
863.22	713.112
864.322	711.112
865.425	709.344
866.527	708.051
867.628	706.725
868.73	705.507
869.831	704.288
870.932	703.101
872.032	702.881
873.133	703.143
874.233	701.049
875.333	699.158
876.432	697.748
877.532	696.541
878.631	695.318
879.729	694.659
880.828	694.397
881.926	694.109
883.023	693.853
884.121	693.082
885.218	691.371
886.315	689.422
887.412	687.213
888.508	684.799
889.604	682.012
890.699	679.251
891.795	676.835
892.89	674.611
893.985	672.577
895.08	670.923
896.174	669.704
897.268	669.012
898.362	668.851
899.456	669.026
900.549	669.517
901.642	670.466
902.734	671.726
903.827	673.217
904.919	674.81
906.011	676.128
907.102	677.445
908.193	678.647
909.284	679.44
910.375	680.288
911.465	681.011
912.555	682.247
913.645	683.271
914.734	683.973
915.824	684.04
916.913	682.912
918.001	680.758
919.09	677.831
920.177	674.188
921.266	669.853
922.353	665.098
923.44	660.09
924.527	655.173
925.614	649.864
926.7	644.642
927.786	640.058
928.873	636.318
929.958	633.565
931.043	631.566
932.128	630.113
933.213	629.007
934.297	628.27
935.381	626.469
936.465	624.107
937.549	622.352
938.632	621.642
939.715	621.24
940.798	621.797
941.881	622.538
942.962	622.129
944.044	619.72
945.125	617.529
946.207	615.47
947.288	613.579
948.368	612.138
949.449	610.529
950.529	609.028
951.61	607.565
952.689	606.1
953.769	604.543
954.847	603.16
955.926	601.913
957.004	600.753
958.082	599.591
959.16	598.598
960.238	597.524
961.316	596.463
962.392	595.495
963.469	594.581
964.546	593.858
965.622	593.172
966.698	592.905
967.774	592.899
968.849	594.065
969.924	594.53
970.998	594.915
972.073	595.118
973.148	595.44
974.221	595.776
975.295	597.48
976.369	599.7
977.441	601.814
978.514	603.78
979.587	604.989
980.659	606.161
981.731	607.047
982.802	607.704
983.874	608.064
984.945	608.319
986.016	608.295
987.087	608.282
988.157	608.029
989.227	607.835
990.296	606.418
991.366	603.706
992.435	601.34
993.504	599.571
994.573	598.469
995.641	598.103
996.709	598.874
997.777	600.201
998.844	603.502
999.911	610.907
1000.98	612.326
1002.05	612.184
1003.11	586.156
1004.18	588.446
1005.24	588.347
1006.31	588.88
1007.37	587.755
1008.44	584.24
1009.5	579.647
1010.57	574.56
1011.63	569.091
1012.7	563.801
1013.76	558.615
1014.82	553.51
1015.89	548.572
1016.95	544.352
1018.01	540.663
1019.07	537.741
1020.13	535.494
1021.2	533.513
1022.26	531.787
1023.32	530.036
1024.38	529.728
1025.44	530.297
1026.5	530.206
1027.56	529.562
1028.62	528.41
1029.68	526.884
1030.74	524.969
1031.8	522.832
1032.85	520.728
1033.91	518.762
1034.97	516.936
1036.03	515.356
1037.09	514.359
1038.14	513.758
1039.2	513.588
1040.26	513.478
1041.31	513.549
1042.37	514.065
1043.42	515.235
1044.48	519.099
1045.53	519.744
1046.59	519.538
1047.64	518.389
1048.7	517.026
1049.75	514.849
1050.81	512.215
1051.86	508.982
1052.91	505.541
1053.97	502.19
1055.02	499.244
1056.07	497.096
1057.12	495.63
1058.17	494.825
1059.23	494.82
1060.28	495.434
1061.33	496.591
1062.38	497.103
1063.43	497.6
1064.48	498.693
1065.53	500.068
1066.58	501.051
1067.63	501.64
1068.68	501.797
1069.72	501.992
1070.77	502.247
1071.82	500.969
1072.87	498.936
1073.92	496.87
1074.96	494.747
1076.01	492.616
1077.06	490.415
1078.1	488.948
1079.15	487.98
1080.2	487.21
1081.24	486.61
1082.29	484.693
1083.33	481.986
1084.38	479.77
1085.42	477.95
1086.47	476.514
1087.51	475.281
1088.55	474.346
1089.6	473.743
1090.64	473.298
1091.68	472.992
1092.73	472.776
1093.77	472.056
1094.81	470.697
1095.85	469.619
1096.89	468.884
1097.93	468.606
1098.98	468.625
1100.02	468.994
1101.06	469.527
1102.1	470.373
1103.14	471.108
1104.18	471.545
1105.21	472.356
1106.25	474.225
1107.29	476.332
1108.33	478.285
1109.37	479.016
1110.41	479.187
1111.44	477.847
1112.48	475.832
1113.52	473.603
1114.56	471.079
1115.59	468.399
1116.63	466.066
1117.66	463.994
1118.7	461.463
1119.73	458.961
1120.77	456.571
1121.8	454.311
1122.84	452.253
1123.87	450.418
1124.91	448.839
1125.94	447.507
1126.97	446.688
1128.01	446.083
1129.04	445.826
1130.07	445.868
1131.11	446.283
1132.14	447.145
1133.17	448.487
1134.2	450.409
1135.23	452.923
1136.26	456.683
1137.29	461.885
1138.32	467.464
1139.35	472.743
1140.38	477.71
1141.41	482.501
1142.44	486.817
1143.47	490.911
1144.5	494.335
1145.53	497.432
1146.56	500.375
1147.58	503.209
1148.61	505.946
1149.64	508.952
1150.67	511.948
1151.69	514.752
1152.72	517.449
1153.75	521.093
1154.77	523.936
1155.8	526.217
1156.82	525.732
1157.85	528.209
1158.87	525.538
1159.9	520.167
1160.92	513.323
1161.95	501.792
1162.97	491.476
1163.99	475.461
1165.02	464.716
1166.04	459.401
1167.06	453.125
1168.08	447.071
1169.11	443.29
1170.13	439.248
1171.15	437.766
1172.17	436.376
1173.19	435.867
1174.21	436.23
1175.23	437.289
1176.25	439.159
1177.27	441.735
1178.29	445.186
1179.31	449.066
1180.33	453.455
1181.35	457.591
1182.37	461.006
1183.39	463.653
1184.4	465.337
1185.42	465.833
1186.44	465.091
1187.46	463.256
1188.47	460.316
1189.49	456.459
1190.51	451.743
1191.52	446.518
1192.54	440.729
1193.55	434.157
1194.57	427.702
1195.58	422.238
1196.6	417.497
1197.61	414.247
1198.63	412.124
1199.64	410.714
1200.65	409.969
1201.67	409.8
1202.68	409.738
1203.69	410.392
1204.7	411.463
1205.72	412.983
1206.73	414.595
1207.74	416.126
1208.75	417.245
1209.76	417.796
1210.77	418.206
1211.78	418.023
1212.79	416.972
1213.8	415.935
1214.81	415.002
1215.82	414.925
1216.83	414.874
1217.84	415.012
1218.85	415.245
1219.86	415.683
1220.87	416.164
1221.87	416.732
1222.88	417.339
1223.89	417.711
1224.9	417.644
1225.9	416.949
1226.91	415.697
1227.92	413.479
1228.92	410.474
1229.93	406.908
1230.93	403.057
1231.94	399.137
1232.94	395.176
1233.95	391.269
1234.95	387.576
1235.95	384.164
1236.96	380.908
1237.96	378.78
1238.96	377.095
1239.97	375.553
1240.97	372.957
1241.97	369.926
1242.97	367.463
1243.98	365.173
1244.98	363.137
1245.98	361.392
1246.98	359.942
1247.98	358.797
1248.98	357.949
1249.98	357.372
1250.98	357.114
1251.98	356.976
1252.98	357.483
1253.98	358.319
1254.98	359.449
1255.98	360.764
1256.97	362.226
1257.97	363.716
1258.97	364.92
1259.97	348.712
1260.97	348.556
1261.96	351.248
1262.96	351.096
1263.95	353.292
1264.95	353.817
1265.95	354.113
1266.94	353.293
1267.94	352.944
1268.93	351.408
1269.93	349.394
1270.92	346.322
1271.92	343.808
1272.91	343.405
1273.9	343.48
1274.9	343.855
1275.89	344.48
1276.88	345.062
1277.87	345.835
1278.87	346.72
1279.86	347.787
1280.85	349.002
1281.84	350.336
1282.83	351.755
1283.82	353.193
1284.81	354.405
1285.81	355.411
1286.8	355.68
1287.79	355.574
1288.77	354.472
1289.76	352.599
1290.75	350.385
1291.74	348.436
1292.73	346.299
1293.72	343.823
1294.71	339.778
1295.69	336.042
1296.68	333.134
1297.67	331.812
1298.65	330.415
1299.64	328.816
1300.63	327.474
1301.61	326.602
1302.6	325.87
1303.58	326.153
1304.57	326.668
1305.55	327.273
1306.54	327.757
1307.52	327.268
1308.51	326.616
1309.49	325.525
1310.48	324.187
1311.46	322.437
1312.44	320.811
1313.42	319.476
1314.41	319.461
1315.39	319.846
1316.37	320.677
1317.35	322.072
1318.33	324.188
1319.32	327.086
1320.3	330.697
1321.28	335.329
1322.26	340.65
1323.24	346.554
1324.22	353.332
1325.2	357.929
1326.18	365.244
1327.15	366.454
1328.13	365.798
1329.11	362.599
1330.09	358.006
1331.07	352.361
1332.05	345.831
1333.02	338.716
1334	330.546
1334.98	324.511
1335.95	319.268
1336.93	314.819
1337.91	311.422
1338.88	311.785
1339.86	309.547
1340.83	307.901
1341.81	306.406
1342.78	305.198
1343.76	304.243
1344.73	303.604
1345.7	303.121
1346.68	302.837
1347.65	302.621
1348.62	302.582
1349.6	302.586
1350.57	302.679
1351.54	302.695
1352.51	302.725
1353.49	302.599
1354.46	302.183
1355.43	301.422
1356.4	299.538
1357.37	297.35
1358.34	295.006
1359.31	292.779
1360.28	291.055
1361.25	289.406
1362.22	288.029
1363.19	285.957
1364.16	283.941
1365.12	283.066
1366.09	284.464
1367.06	284.162
1368.03	283.081
1369	282.257
1369.96	281.635
1370.93	281.482
1371.9	281.649
1372.86	282.242
1373.83	283.025
1374.79	284.055
1375.76	284.634
1376.73	283.737
1377.69	282.72
1378.66	281.573
1379.62	280.373
1380.58	279.183
1381.55	278.294
1382.51	278.039
1383.48	278.309
1384.44	277.207
1385.4	274.881
1386.36	275.422
1387.33	275.495
1388.29	276.4
1389.25	277.989
1390.21	278.562
1391.17	277.818
1392.13	277.069
1393.09	276.33
1394.06	275.571
1395.01	274.871
1395.97	274.185
1396.93	272.859
1397.89	271.808
1398.85	269.513
1399.81	267.059
1400.77	264.679
1401.73	262.565
1402.69	260.537
1403.64	259.015
1404.6	258.388
1405.56	259.961
1406.52	260.282
1407.47	260.046
1408.43	259.65
1409.39	259.377
1410.34	259.331
1411.3	259.355
1412.25	259.446
1413.21	259.329
1414.16	259.597
1415.12	259.974
1416.07	260.28
1417.03	259.728
1417.98	259.297
1418.93	258.853
1419.89	258.793
1420.84	258.69
1421.79	258.681
1422.74	258.625
1423.7	258.567
1424.65	258.376
1425.6	258.144
1426.55	257.754
1427.5	256.805
1428.45	256.322
1429.4	256.879
1430.35	257.835
1431.3	259.178
1432.25	261.148
1433.2	263.071
1434.15	264.719
1435.1	265.725
1436.05	266.769
1437	267.842
1437.95	268.716
1438.89	269.26
1439.84	269.501
1440.79	269.352
1441.74	268.474
1442.68	267.325
1443.63	265.378
1444.58	263.1
1445.52	260.805
1446.47	259.04
1447.41	257.411
1448.36	256.028
1449.3	254.858
1450.25	253.9
1451.19	252.927
1452.14	251.884
1453.08	250.393
1454.03	249.005
1454.97	247.334
1455.91	245.627
1456.85	243.908
1457.8	242.289
1458.74	240.655
1459.68	239.839
1460.62	238.77
1461.57	237.236
1462.51	235.589
1463.45	233.753
1464.39	232.298
1465.33	231.191
1466.27	230.335
1467.21	229.95
1468.15	229.89
1469.09	230.023
1470.03	230.091
1470.97	229.733
1471.9	229.081
1472.84	228.663
1473.78	229.209
1474.72	230.344
1475.66	229.442
1476.59	228.827
1477.53	228.475
1478.47	228.463
1479.4	228.766
1480.34	229.458
1481.28	230.64
1482.21	232.34
1483.15	234.306
1484.08	236.321
1485.02	238.361
1485.95	239.583
1486.89	240.638
1487.82	241.845
1488.76	242.698
1489.69	243.068
1490.62	242.608
1491.56	242.083
1492.49	240.633
1493.42	238.131
1494.35	235.648
1495.29	233.546
1496.22	231.669
1497.15	230.122
1498.08	228.925
1499.01	228.11
1499.94	227.284
1500.87	225.752
1501.8	224.676
1502.73	224.228
1503.66	224.357
1504.59	225.165
1505.52	226.453
1506.45	228.832
1507.38	231.689
1508.31	235.133
1509.23	237.438
1510.16	239.995
1511.09	243.142
1512.02	247.986
1512.94	253.2
1513.87	258.424
1514.8	263.615
1515.72	270.815
1516.65	278.718
1517.58	286.884
1518.5	295.028
1519.43	302.723
1520.35	308.799
1521.28	314.284
1522.2	319.572
1523.12	324.634
1524.05	329.399
1524.97	332.772
1525.9	334.847
1526.82	334.658
1527.74	332.462
1528.66	327.199
1529.59	320.477
1530.51	313.627
1531.43	306.699
1532.35	299.911
1533.27	293.193
1534.19	286.818
1535.11	280.637
1536.04	274.654
1536.96	268.849
1537.88	262.773
1538.8	256.779
1539.71	251.252
1540.63	246.263
1541.55	242.4
1542.47	239.992
1543.39	238.099
1544.31	236.818
1545.23	236.023
1546.14	235.437
1547.06	235.458
1547.98	235.826
1548.89	236.529
1549.81	237.126
1550.73	237.427
1551.64	236.929
1552.56	235.878
1553.47	234.214
1554.39	232.047
1555.31	229.429
1556.22	226.323
1557.13	222.995
1558.05	219.515
1558.96	216.239
1559.88	213.318
1560.79	210.747
1561.7	208.48
1562.62	206.279
1563.53	204.333
1564.44	202.92
1565.35	202.289
1566.27	202.182
1567.18	202.344
1568.09	202.42
1569	202.173
1569.91	201.56
1570.82	200.345
1571.73	199.37
1572.64	198.584
1573.55	197.715
1574.46	196.735
1575.37	195.866
1576.28	195.014
1577.19	194.537
1578.1	194.195
1579	193.595
1579.91	192.514
1580.82	191.431
1581.73	190.808
1582.63	190.441
1583.54	190.365
1584.45	190.445
1585.35	190.366
1586.26	190.191
1587.17	191.462
1588.07	191.474
1588.98	191.554
1589.88	191.659
1590.79	191.849
1591.69	192.067
1592.6	192.148
1593.5	192.259
1594.4	192.483
1595.31	192.922
1596.21	193.393
1597.11	194.1
1598.02	195.029
1598.92	195.889
1599.82	196.26
1600.72	196.975
1601.63	197.994
1602.53	199.166
1603.43	200.253
1604.33	201.253
1605.23	201.993
1606.13	201.899
1607.03	201.178
1607.93	200.183
1608.83	199.046
1609.73	198.227
1610.63	197.023
1611.53	195.595
1612.43	194.108
1613.32	192.957
1614.22	192.5
1615.12	191.887
1616.02	191.477
1616.92	191.228
1617.81	190.726
1618.71	190.406
1619.61	189.675
1620.5	189.319
1621.4	188.517
1622.29	187.552
1623.19	186.581
1624.08	185.824
1624.98	185.195
1625.87	184.428
1626.77	183.625
1627.66	183.304
1628.56	183.246
1629.45	183.066
1630.34	182.879
1631.24	182.745
1632.13	183.167
1632.84	183.756
1633.77	183.923
1634.7	183.803
1635.63	183.771
1636.56	183.28
1637.49	182.038
1638.42	181.301
1639.34	181.457
1640.27	181.121
1641.2	180.64
1642.13	180.456
1643.05	179.773
1643.98	179.593
1644.91	180.021
1645.83	180.837
1646.76	181.994
1647.68	182.642
1648.61	182.827
1649.54	182.967
1650.46	183.028
1651.39	182.56
1652.31	182.06
1653.23	181.217
1654.16	180.271
1655.08	179.414
1656.01	178.146
1656.93	178.292
1657.85	178.744
1658.78	182.256
1659.7	183.598
1660.62	184.277
1661.54	181.137
1662.47	178.343
1663.39	179.586
1664.31	183.998
1665.23	180.168
1666.15	179.948
1667.07	179.323
1667.99	178.54
1668.92	177.557
1669.84	176.581
1670.76	175.827
1671.68	175.068
1672.6	174.128
1673.52	173.17
1674.43	172.738
1675.35	172.434
1676.27	171.774
1677.19	171.826
1678.11	171.416
1679.03	171.028
1679.95	171.161
1680.86	170.85
1681.78	171.386
1682.7	171.993
1683.61	172.396
1684.53	172.851
1685.45	173.461
1686.36	173.025
1687.28	172.293
1688.2	171.674
1689.11	171.001
1690.03	170.728
1690.94	169.359
1691.86	168.173
1692.77	167.504
1693.69	166.807
1694.6	166.723
1695.52	166.423
1696.43	165.936
1697.34	164.783
1698.26	163.745
1699.17	162.573
1700.08	161.97
1700.99	160.966
1701.91	160.342
1702.82	160.293
1703.73	159.934
1704.64	159.499
1705.55	158.45
1706.47	157.713
1707.38	157.655
1708.29	157.665
1709.2	156.863
1710.11	155.673
1711.02	154.822
1711.93	154.193
1712.84	153.419
1713.75	152.792
1714.66	152.859
1715.57	153.056
1716.48	153.678
1717.39	154.377
1718.29	155.241
1719.2	154.297
1720.11	153.102
1721.02	151.813
1721.93	150.594
1722.83	149.358
1723.74	148.921
1724.65	149.154
1725.55	149.042
1726.46	148.602
1727.37	148.729
1728.27	149.165
1729.18	149.942
1730.08	150.155
1730.99	150.768
1731.89	151.551
1732.8	152.111
1733.7	151.804
1734.61	151.213
1735.51	150.995
1736.42	151.042
1737.32	150.93
1738.22	150.742
1739.13	149.899
1740.03	149.042
1740.93	148.951
1741.83	148.218
1742.74	146.716
1743.64	145.479
1744.54	144.561
1745.44	144.156
1746.34	144.062
1747.24	144.135
1748.15	144.451
1749.05	145.199
1749.95	145.356
1750.85	145.608
1751.75	145.628
1752.65	145.646
1753.55	146.617
1754.45	147.367
1755.35	147.905
1756.25	148.043
1757.14	147.619
1758.04	146.872
1758.94	146.856
1759.84	146.517
1760.74	146.519
1761.63	146.267
1762.53	145.464
1763.43	144.882
1764.33	144.678
1765.22	143.737
1766.12	142.413
1767.02	141.312
1767.91	141.093
1768.81	141.043
1769.7	140.926
1770.6	140.649
1771.49	140.65
1772.39	140.729
1773.28	140.742
1774.18	140.553
1775.07	140.766
1775.97	140.72
1776.86	141.253
1777.75	141.03
1778.65	140.94
1779.54	140.592
1780.43	139.701
1781.33	139.61
1782.22	139.121
1783.11	136.906
1784	136.673
1784.89	136.771
1785.79	136.904
1786.68	137.156
1787.57	137.475
1788.46	137.697
1789.35	137.728
1790.24	137.63
1791.13	137.556
1792.02	137.076
1792.91	136.38
1793.8	135.011
1794.69	133.718
1795.58	131.157
1796.47	131.198
1797.36	130.091
1798.25	132.538
1799.13	132.807
