Acq. time (s)=	15
Accumulations=	2
Range (cm-¹)=	600...1800
Windows=	2
Autofocus=	Off
AutoExposure=	Off
Spike filter=	Multiple accum.
Delay time (s)=	1
Binning=	1
Readout mode=	Signal
DeNoise=	Standard
ICS correction=	Off
Dark correction=	Off
Inst. Process=	Off
Instrument=	XploRA
Detector=	Syncerity
Objective=	x20LWD
Grating=	1200 gr/mm
Filter=	25%
Laser (nm)=	785 
Slit (µm)=	100 
Hole (µm)=	300 
Laser pol=	None
Raman pol=	None
Output=	Camera
StageXY=	Marzhauser
StageZ=	
X (µm)=	-2560.5
Y (µm)=	3592.1
Project=	
Sample=	
Site=	
Title=	To8
Remark=	
Date=	28.10.2022 21:42
Acquired=	28.10.2022 21:42:18
600.839	1428.31
602.009	1435.96
603.178	1437.92
604.347	1458.06
605.516	1476.69
606.684	1503.97
607.852	1518.71
609.02	1529.99
610.187	1540.74
611.355	1555.43
612.521	1543.59
613.688	1586.08
614.854	1600.95
616.02	1614.61
617.185	1626.46
618.351	1629.22
619.516	1629.77
620.681	1630.75
621.846	1633.25
623.009	1636.21
624.174	1640.78
625.337	1643.94
626.501	1646.77
627.664	1650.56
628.826	1655.3
629.988	1659.84
631.151	1663.99
632.313	1667.63
633.474	1670.67
634.635	1673.02
635.797	1674.07
636.958	1674.48
638.117	1674.05
639.278	1673.51
640.437	1673.04
641.597	1672.74
642.756	1672.56
643.915	1672.55
645.074	1672.72
646.233	1673.03
647.391	1673.57
648.548	1674.23
649.706	1675.1
650.863	1676.12
652.02	1677.24
653.176	1678.12
654.333	1678.6
655.489	1678.83
656.645	1678.99
657.8	1679.07
658.955	1679.24
660.11	1679.59
661.264	1680.14
662.419	1681.45
663.573	1682.43
664.727	1684.74
665.88	1687.33
667.033	1690.18
668.186	1693.18
669.338	1696.22
670.491	1699.3
671.643	1701.33
672.794	1703.48
673.945	1705.28
675.096	1707.06
676.247	1707.91
677.398	1709.26
678.548	1711.07
679.698	1714.61
680.847	1718.01
681.997	1713.62
683.146	1700.12
684.294	1713.19
685.443	1730.03
686.591	1731.4
687.739	1731.46
688.887	1729.74
690.034	1726.25
691.181	1722.16
692.328	1718.65
693.474	1715.65
694.62	1712.97
695.766	1711.2
696.911	1707.91
698.057	1704.43
699.202	1700.89
700.346	1697.26
701.49	1693.68
702.635	1690.79
703.779	1688.75
704.922	1688.34
706.065	1688.06
707.208	1687.78
708.351	1687.1
709.493	1685.64
710.635	1683.73
711.776	1681.48
712.918	1679.16
714.059	1676.94
715.2	1674.69
716.341	1672.13
717.481	1669.17
718.621	1665.59
719.761	1660.11
720.9	1654.9
722.04	1650.33
723.178	1647.98
724.317	1646.36
725.455	1645.54
726.594	1645.22
727.731	1643.93
728.868	1643.16
730.005	1645.82
731.142	1650.47
732.279	1656.54
733.415	1665.46
734.551	1672.54
735.686	1680.72
736.822	1688.28
737.957	1695.21
739.092	1700.18
740.226	1703.8
741.36	1706.39
742.495	1702.13
743.628	1697.04
744.762	1690.28
745.895	1682.96
747.027	1674.87
748.16	1669.18
749.292	1662.01
750.423	1654.13
751.555	1647.36
752.686	1638.5
753.817	1628.61
754.949	1618.17
756.079	1608.88
757.209	1599.74
758.339	1590.66
759.469	1581.99
760.597	1573.7
761.727	1566.14
762.856	1559.28
763.984	1553.09
765.112	1547.55
766.24	1542.64
767.367	1538.34
768.494	1534.66
769.622	1531.62
770.749	1528.99
771.874	1525.99
773.001	1522.93
774.127	1519.79
775.253	1514.25
776.377	1509.34
777.503	1503.66
778.627	1498.68
779.751	1493.37
780.876	1487.9
782	1482.68
783.123	1477.63
784.246	1472.59
785.37	1467.69
786.492	1462.99
787.614	1458.48
788.737	1453.22
789.858	1448.18
790.979	1445.07
792.101	1442.39
793.222	1439.85
794.342	1437.59
795.463	1434.94
796.583	1432
797.702	1428.95
798.822	1425.97
799.942	1423.28
801.06	1422.38
802.179	1419.44
803.297	1415.27
804.415	1410.08
805.533	1404
806.651	1397.12
807.768	1390.64
808.885	1384.81
810.001	1380.25
811.118	1377.62
812.233	1376.2
813.349	1375.62
814.464	1375.76
815.58	1375.98
816.695	1376.3
817.809	1376.71
818.924	1376.19
820.038	1370.41
821.152	1369.15
822.265	1368.27
823.378	1367.53
824.491	1366.79
825.604	1365.95
826.716	1364.99
827.828	1363.85
828.94	1362.38
830.051	1360.28
831.162	1357.61
832.273	1354.86
833.383	1353.9
834.494	1351.85
835.604	1348.63
836.714	1345.32
837.823	1342.06
838.932	1338.9
840.041	1336.03
841.15	1333.55
842.258	1331.38
843.366	1329.63
844.474	1327.84
845.581	1325.93
846.688	1323.15
847.795	1321.65
848.901	1319.69
850.008	1317.03
851.115	1313.67
852.22	1309.05
853.325	1303.91
854.43	1298.53
855.536	1292.9
856.64	1287.39
857.745	1282.17
858.848	1277.34
859.952	1272.7
861.055	1268.37
862.158	1264.33
863.261	1260.86
864.364	1258.07
865.466	1256.1
866.568	1255.02
867.67	1254.44
868.771	1252.81
869.873	1250.66
870.973	1247.92
872.074	1244.77
873.174	1241.05
874.274	1237.19
875.374	1233.55
876.473	1231.27
877.572	1230.03
878.671	1228.72
879.77	1226.83
880.868	1224.75
881.966	1223.08
883.064	1222.23
884.161	1221.35
885.258	1220.75
886.356	1220.42
887.452	1219.52
888.548	1217.47
889.645	1214.22
890.74	1210.01
891.836	1206.98
892.931	1204.54
894.025	1202.46
895.12	1200.56
896.214	1199.74
897.308	1198.68
898.402	1200.49
899.495	1202.73
900.588	1201.34
901.681	1198.36
902.774	1197.49
903.866	1198.42
904.958	1200.71
906.05	1204
907.142	1207.36
908.233	1210.92
909.324	1214.76
910.414	1219.13
911.504	1221.92
912.594	1223.29
913.684	1223.17
914.774	1221.72
915.863	1218.79
916.952	1214.29
918.041	1206.12
919.129	1197.94
920.217	1187.92
921.305	1168.32
922.392	1154.3
923.48	1139.13
924.567	1127.73
925.653	1119.81
926.74	1114.57
927.825	1113.45
928.911	1129.51
929.997	1130.95
931.082	1126.1
932.166	1116.51
933.252	1109.36
934.336	1103.6
935.42	1102.16
936.504	1105.73
937.587	1101.33
938.671	1097.13
939.753	1093.2
940.836	1089.51
941.919	1086.18
943	1083.1
944.082	1080.33
945.163	1077.91
946.245	1076.1
947.326	1074.59
948.406	1073.39
949.487	1072.31
950.567	1071.39
951.647	1070.47
952.727	1068.87
953.805	1067.32
954.885	1065.96
955.964	1064.77
957.042	1064.14
958.12	1063.89
959.198	1064.06
960.276	1063.96
961.352	1062.99
962.43	1062.09
963.507	1061.14
964.583	1059.23
965.659	1057.53
966.735	1056.22
967.81	1056.24
968.885	1056.74
969.961	1057.62
971.036	1058.88
972.11	1060.5
973.184	1062.46
974.258	1064.68
975.332	1067.15
976.405	1069.74
977.478	1072.32
978.551	1075.04
979.624	1077.77
980.696	1078.83
981.767	1077.58
982.839	1075.67
983.911	1073.84
984.982	1071.81
986.052	1069.98
987.123	1068.44
988.193	1067.23
989.263	1066.38
990.333	1065.82
991.403	1065.58
992.471	1065.63
993.54	1065.9
994.608	1066.4
995.677	1066.59
996.745	1065.86
997.812	1063.94
998.88	1061.04
999.947	1056.17
1001.01	1049.98
1002.08	1042.97
1003.15	1035.65
1004.21	1028.02
1005.28	1020.12
1006.34	1012.25
1007.41	1004.42
1008.47	996.937
1009.54	989.848
1010.6	983.021
1011.67	976.057
1012.73	969.333
1013.79	962.95
1014.86	957.04
1015.92	951.614
1016.98	946.802
1018.05	943.027
1019.11	940.126
1020.17	937.654
1021.23	935.699
1022.29	933.562
1023.35	930.745
1024.41	928.763
1025.47	927.329
1026.53	927.889
1027.59	928.265
1028.65	928.691
1029.71	927.219
1030.77	922.429
1031.83	918.43
1032.89	917.529
1033.95	917.71
1035	918.869
1036.06	921.278
1037.12	921.527
1038.18	919.991
1039.23	918.424
1040.29	916.665
1041.35	914.808
1042.4	912.786
1043.46	910.628
1044.51	908.209
1045.57	905.691
1046.62	903.138
1047.68	900.568
1048.73	898.012
1049.79	895.481
1050.84	893.415
1051.89	891.439
1052.95	889.692
1054	888.166
1055.05	886.871
1056.1	885.803
1057.16	884.953
1058.21	884.315
1059.26	883.91
1060.31	884.717
1061.36	885.922
1062.41	886.627
1063.46	887.095
1064.51	885.782
1065.56	883.929
1066.61	881.425
1067.66	878.461
1068.71	874.941
1069.76	871.033
1070.81	866.836
1071.85	862.493
1072.9	858.077
1073.95	853.347
1075	848.065
1076.04	843.159
1077.09	841.251
1078.14	841.253
1079.18	843.66
1080.23	848.151
1081.27	851.026
1082.32	849.06
1083.36	847.264
1084.41	846.502
1085.45	846.121
1086.5	844.375
1087.54	842.802
1088.59	841.222
1089.63	839.905
1090.67	838.492
1091.71	836.956
1092.76	834.646
1093.8	830.51
1094.84	826.521
1095.88	823.004
1096.92	820.074
1097.97	817.805
1099.01	816.241
1100.05	815.261
1101.09	814.8
1102.13	814.866
1103.17	815.325
1104.21	816.227
1105.25	817.516
1106.28	819.24
1107.32	821.193
1108.36	824.492
1109.4	825.37
1110.44	824.985
1111.47	823.599
1112.51	821.3
1113.55	818.286
1114.59	813.56
1115.62	808.634
1116.66	802.968
1117.69	797.103
1118.73	792.194
1119.77	787.972
1120.8	784.976
1121.84	783.517
1122.87	783.769
1123.9	785
1124.94	786.954
1125.97	789.708
1127	791.907
1128.04	794.52
1129.07	798.111
1130.1	802.91
1131.13	808.791
1132.17	814.901
1133.2	821.1
1134.23	827.423
1135.26	832.706
1136.29	838.084
1137.32	843.201
1138.35	849.801
1139.38	853.606
1140.41	857.003
1141.44	859.072
1142.47	860.785
1143.5	862.199
1144.53	864.443
1145.56	866.878
1146.59	869.316
1147.61	871.6
1148.64	871.795
1149.67	879.916
1150.7	889.88
1151.72	899.34
1152.75	913.964
1153.77	922.109
1154.8	921.561
1155.83	915.734
1156.85	905.266
1157.88	884.794
1158.9	856.885
1159.93	836.581
1160.95	816.237
1161.97	806.569
1163	792.185
1164.02	780.713
1165.04	772.333
1166.07	766.274
1167.09	762.179
1168.11	760.347
1169.13	759.724
1170.16	760.073
1171.18	760.884
1172.2	763.47
1173.22	766.979
1174.24	771.277
1175.26	776.113
1176.28	781.323
1177.3	786.554
1178.32	791.531
1179.34	796.63
1180.36	801.044
1181.38	804.453
1182.4	805.639
1183.41	804.312
1184.43	801.678
1185.45	797.826
1186.47	793.269
1187.48	787.483
1188.5	780.578
1189.52	772.706
1190.53	763.745
1191.55	755.236
1192.56	747.373
1193.58	740.173
1194.59	733.668
1195.61	727.838
1196.62	722.78
1197.64	718.399
1198.65	714.824
1199.67	711.926
1200.68	709.752
1201.69	708.218
1202.71	706.015
1203.72	705.139
1204.73	707.351
1205.74	709.633
1206.76	711.795
1207.77	713.85
1208.78	715.962
1209.79	718.042
1210.8	720.075
1211.81	722.002
1212.82	723.808
1213.83	725.364
1214.84	726.728
1215.85	727.865
1216.86	728.724
1217.87	729.282
1218.88	729.472
1219.88	729.279
1220.89	728.332
1221.9	725.863
1222.91	723.355
1223.92	721.094
1224.92	719.041
1225.93	714.639
1226.93	709.453
1227.94	703.895
1228.95	697.859
1229.95	692.62
1230.96	686.137
1231.96	679.504
1232.97	672.886
1233.97	667.876
1234.98	663.387
1235.98	659.359
1236.98	654.713
1237.99	649.631
1238.99	644.979
1239.99	640.793
1241	637.096
1242	633.817
1243	630.97
1244	628.448
1245	626.238
1246	624.188
1247.01	622.368
1248.01	620.767
1249.01	619.303
1250.01	618.135
1251.01	617.251
1252.01	617.005
1253	617.135
1254	617.618
1255	618.423
1256	619.287
1257	620.183
1258	620.818
1258.99	621.555
1259.99	622.118
1260.99	622.406
1261.99	622.168
1262.98	621.554
1263.98	620.726
1264.98	619.844
1265.97	619.128
1266.97	617.73
1267.96	615.96
1268.96	613.604
1269.95	611.188
1270.95	608.976
1271.94	607.233
1272.93	606.254
1273.93	605.818
1274.92	606.005
1275.91	606.798
1276.91	608.128
1277.9	609.85
1278.89	611.836
1279.88	613.946
1280.87	615.542
1281.87	616.402
1282.86	616.502
1283.85	615.768
1284.84	614.242
1285.83	611.815
1286.82	608.643
1287.81	604.558
1288.8	599.849
1289.79	594.884
1290.78	589.857
1291.76	585.352
1292.75	581.335
1293.74	577.917
1294.73	575.023
1295.72	572.694
1296.7	570.985
1297.69	569.897
1298.68	569.399
1299.66	569.466
1300.65	569.605
1301.64	569.599
1302.62	569.25
1303.61	569.971
1304.59	570.811
1305.58	571.154
1306.56	569.981
1307.55	568.239
1308.53	566.3
1309.51	564.271
1310.5	562.33
1311.48	561.272
1312.46	560.792
1313.45	561.1
1314.43	562.429
1315.41	565.045
1316.39	568.942
1317.38	574.689
1318.36	578.527
1319.34	590.085
1320.32	603.226
1321.3	617.281
1322.28	633.178
1323.26	638.404
1324.24	640.79
1325.22	638.877
1326.2	633.816
1327.18	611.791
1328.16	600.403
1329.13	588.565
1330.11	577.159
1331.09	565.883
1332.07	558.712
1333.04	553.768
1334.02	549.022
1335	544.586
1335.97	540.417
1336.95	536.532
1337.93	532.92
1338.9	529.591
1339.88	526.539
1340.85	523.819
1341.83	521.306
1342.8	519.077
1343.78	517.121
1344.75	515.461
1345.72	514.092
1346.7	513.031
1347.67	512.24
1348.65	511.773
1349.62	511.555
1350.59	511.661
1351.56	512.053
1352.53	512.624
1353.51	513.135
1354.48	512.619
1355.45	511.396
1356.42	509.36
1357.39	507.057
1358.36	504.125
1359.33	500.967
1360.3	497.634
1361.27	494.209
1362.24	490.733
1363.21	487.43
1364.18	484.488
1365.14	482.088
1366.11	480.401
1367.08	479.206
1368.05	479.674
1369.02	480.73
1369.98	482.254
1370.95	483.885
1371.92	485.098
1372.88	486.32
1373.85	487.533
1374.81	488.606
1375.78	489.387
1376.74	489.803
1377.71	489.965
1378.68	489.778
1379.64	489.316
1380.6	488.673
1381.57	488.06
1382.53	487.8
1383.49	487.634
1384.46	487.187
1385.42	486.506
1386.38	485.338
1387.34	483.473
1388.31	480.705
1389.27	477.761
1390.23	474.721
1391.19	471.737
1392.15	468.942
1393.11	466.457
1394.07	464.016
1395.03	461.688
1395.99	459.37
1396.95	457.174
1397.91	455.126
1398.87	453.285
1399.83	451.628
1400.79	450.211
1401.75	449.223
1402.7	448.01
1403.66	446.702
1404.62	445.296
1405.58	443.731
1406.53	442.23
1407.49	440.865
1408.45	439.787
1409.4	438.979
1410.36	438.248
1411.31	437.519
1412.27	436.737
1413.23	436.013
1414.18	435.45
1415.13	435.089
1416.09	435.062
1417.04	435.417
1418	436.33
1418.95	438.643
1419.9	441.114
1420.86	443.665
1421.81	445.316
1422.76	446.856
1423.71	447.886
1424.67	449.48
1425.62	451.174
1426.57	452.836
1427.52	454.447
1428.47	455.976
1429.42	457.485
1430.37	458.886
1431.32	460.256
1432.27	461.507
1433.22	462.699
1434.17	463.742
1435.12	464.621
1436.07	465.141
1437.02	464.066
1437.96	462.468
1438.91	459.744
1439.86	455.706
1440.81	450.806
1441.75	445.427
1442.7	439.673
1443.65	434.491
1444.59	429.783
1445.54	425.68
1446.49	422.414
1447.43	420.153
1448.38	418.949
1449.32	418.793
1450.27	419.571
1451.21	421.579
1452.15	421.437
1453.1	421.185
1454.04	420.733
1454.98	420.206
1455.93	419.5
1456.87	418.72
1457.81	417.818
1458.76	416.78
1459.7	415.666
1460.64	414.447
1461.58	413.174
1462.52	411.808
1463.46	410.429
1464.4	408.941
1465.34	407.472
1466.28	405.883
1467.22	404.325
1468.16	402.666
1469.1	401.063
1470.04	399.488
1470.98	398.508
1471.92	398.828
1472.86	399.105
1473.8	399.566
1474.73	400.232
1475.67	401.166
1476.61	402.243
1477.55	403.499
1478.48	404.916
1479.42	406.316
1480.36	407.495
1481.29	408.348
1482.23	408.908
1483.16	409.311
1484.1	410.109
1485.03	411.499
1485.97	411.082
1486.9	410.128
1487.84	408.528
1488.77	406.33
1489.7	403.752
1490.64	401.145
1491.57	398.84
1492.5	396.975
1493.44	395.652
1494.37	394.625
1495.3	393.816
1496.23	392.805
1497.16	390.498
1498.09	388.57
1499.02	387.148
1499.96	386.252
1500.89	385.989
1501.82	386.391
1502.75	387.748
1503.68	390.373
1504.61	394.504
1505.53	397.654
1506.46	401.441
1507.39	405.882
1508.32	411.275
1509.25	417.794
1510.18	425.458
1511.1	434.27
1512.03	444.195
1512.96	455.333
1513.88	467.035
1514.81	478.802
1515.74	490.431
1516.66	501.818
1517.59	512.872
1518.51	523.719
1519.44	534.356
1520.36	543.248
1521.29	550.268
1522.21	555.188
1523.14	557.918
1524.06	558.29
1524.98	556.355
1525.91	552.251
1526.83	546.326
1527.75	538.815
1528.68	530.027
1529.6	520.573
1530.52	510.886
1531.44	501.123
1532.36	491.449
1533.29	481.885
1534.21	472.37
1535.13	462.904
1536.05	453.174
1536.97	443.586
1537.89	434.535
1538.81	425.847
1539.73	418.045
1540.65	411.23
1541.56	404.5
1542.48	399.957
1543.4	397.747
1544.32	397.172
1545.24	397.731
1546.16	398.142
1547.07	398.207
1547.99	398.017
1548.91	397.652
1549.82	397.013
1550.74	396.24
1551.66	395.126
1552.57	393.199
1553.49	390.115
1554.4	384.922
1555.32	379.713
1556.23	374.813
1557.15	370.24
1558.06	366.037
1558.97	362.159
1559.89	358.672
1560.8	355.513
1561.71	352.675
1562.63	350.117
1563.54	347.747
1564.45	345.586
1565.36	343.426
1566.28	342.058
1567.19	340.938
1568.1	339.976
1569.01	339.209
1569.92	338.612
1570.83	337.37
1571.74	336.249
1572.65	335.382
1573.56	334.724
1574.47	334.367
1575.38	334.582
1576.29	334.972
1577.2	334.825
1578.11	334.199
1579.01	333.585
1579.92	332.884
1580.83	332.094
1581.74	331.114
1582.64	329.86
1583.55	328.298
1584.46	326.802
1585.36	325.621
1586.27	324.895
1587.18	324.721
1588.08	325.106
1588.99	326.286
1589.89	326.812
1590.8	327.628
1591.7	328.651
1592.61	329.905
1593.51	331.413
1594.41	333.255
1595.32	335.366
1596.22	337.881
1597.12	340.547
1598.03	342.006
1598.93	342.892
1599.83	343.143
1600.73	342.841
1601.64	343.313
1602.54	343.834
1603.44	344.406
1604.34	344.811
1605.24	344.877
1606.14	344.306
1607.04	343.052
1607.94	341.184
1608.84	338.826
1609.74	336.228
1610.64	333.725
1611.54	331.581
1612.44	329.638
1613.33	327.619
1614.23	325.723
1615.13	323.993
1616.03	322.458
1616.92	321.212
1617.82	320.472
1618.72	319.978
1619.61	319.709
1620.51	319.659
1621.41	319.741
1622.3	319.831
1623.2	319.828
1624.09	319.749
1624.99	319.501
1625.88	319.022
1626.78	318.353
1627.67	317.708
1628.57	317.316
1629.46	316.573
1630.35	315.135
1631.25	314.244
1632.14	313.756
1632.85	313.543
1633.78	313.43
1634.71	313.798
1635.64	314.464
1636.57	315.914
1637.5	317.958
1638.42	320.156
1639.35	321.926
1640.28	323.276
1641.21	324.269
1642.13	324.65
1643.06	324.565
1643.99	323.984
1644.91	322.917
1645.84	320.788
1646.77	320.295
1647.69	319.968
1648.62	318.884
1649.54	317.686
1650.47	316.351
1651.39	315.136
1652.32	314.018
1653.24	313.034
1654.17	312.092
1655.09	311.189
1656.01	310.084
1656.94	308.935
1657.86	307.701
1658.78	306.385
1659.71	305.594
1660.63	305.272
1661.55	305.234
1662.47	305.332
1663.4	305.678
1664.32	306.076
1665.24	306.39
1666.16	306.827
1667.08	307.183
1668	307.625
1668.92	307.942
1669.84	308.158
1670.76	308.323
1671.68	309.062
1672.6	310.227
1673.52	311.066
1674.44	311.715
1675.36	312.039
1676.28	312.016
1677.2	310.599
1678.12	308.779
1679.03	306.993
1679.95	305.928
1680.87	305.018
1681.79	303.959
1682.7	302.4
1683.62	300.296
1684.54	298.137
1685.45	295.939
1686.37	293.944
1687.29	292.165
1688.2	290.489
1689.12	289.576
1690.03	289.54
1690.95	289.562
1691.86	289.488
1692.78	289.171
1693.69	288.653
1694.61	287.71
1695.52	286.815
1696.43	285.159
1697.35	283.476
1698.26	281.747
1699.17	280.019
1700.09	278.372
1701	277.125
1701.91	276.13
1702.82	275.206
1703.74	274.549
1704.65	273.97
1705.56	273.945
1706.47	274.079
1707.38	274.354
1708.29	274.687
1709.2	275.303
1710.11	275.502
1711.02	275.244
1711.93	274.941
1712.84	274.517
1713.75	274.01
1714.66	273.564
1715.57	273.084
1716.48	272.566
1717.39	272.259
1718.3	271.769
1719.21	271.271
1720.11	270.724
1721.02	270.189
1721.93	269.73
1722.84	269.064
1723.74	268.36
1724.65	267.515
1725.56	266.635
1726.46	265.724
1727.37	264.702
1728.28	263.674
1729.18	262.557
1730.09	261.38
1730.99	260.247
1731.9	259.212
1732.8	258.645
1733.71	259.066
1734.61	259.715
1735.52	260.379
1736.42	261.232
1737.32	262.087
1738.23	262.743
1739.13	263.021
1740.03	263.047
1740.94	262.565
1741.84	261.909
1742.74	261.193
1743.64	260.488
1744.54	259.853
1745.45	259.35
1746.35	258.872
1747.25	258.498
1748.15	258.101
1749.05	257.701
1749.95	257.281
1750.85	256.857
1751.75	256.412
1752.65	255.901
1753.55	255.273
1754.45	254.541
1755.35	253.743
1756.25	252.919
1757.15	252.012
1758.05	253.326
1758.94	253.02
1759.84	251.987
1760.74	250.451
1761.64	248.362
1762.53	246.369
1763.43	246.096
1764.33	246.668
1765.23	247.889
1766.12	249.651
1767.02	251.185
1767.91	252.487
1768.81	253.2
1769.71	253.148
1770.6	252.468
1771.5	251.411
1772.39	249.476
1773.29	248.032
1774.18	246.944
1775.07	245.849
1775.97	244.572
1776.86	243.258
1777.76	241.644
1778.65	239.523
1779.54	237.476
1780.44	235.652
1781.33	235.229
1782.22	235.047
1783.11	235.002
1784.01	234.984
1784.9	234.97
1785.79	234.968
1786.68	234.968
1787.57	234.981
1788.46	235.003
1789.35	234.997
1790.24	235.032
1791.13	235.182
1792.02	235.449
1792.91	235.564
1793.8	235.442
1794.69	234.997
1795.58	232.801
1796.47	229.78
1797.36	226.523
1798.25	224.166
1799.14	221.599
