Acq. time (s)=	15
Accumulations=	2
Range (cm-¹)=	600...1800
Windows=	2
Autofocus=	Off
AutoExposure=	Off
Spike filter=	Multiple accum.
Delay time (s)=	1
Binning=	1
Readout mode=	Signal
DeNoise=	Standard
ICS correction=	Off
Dark correction=	Off
Inst. Process=	Off
Instrument=	XploRA
Detector=	Syncerity
Objective=	x20LWD
Grating=	1200 gr/mm
Filter=	25%
Laser (nm)=	785 
Slit (µm)=	100 
Hole (µm)=	300 
Laser pol=	None
Raman pol=	None
Output=	Camera
StageXY=	Marzhauser
StageZ=	
X (µm)=	139.9
Y (µm)=	1325.7
Project=	
Sample=	
Site=	
Title=	To2
Remark=	
Date=	29.10.2022 04:47
Acquired=	29.10.2022 04:47:35
600.839	877.566
602.009	875.933
603.178	879.607
604.347	884.202
605.516	887.5
606.684	892.366
607.852	898.486
609.02	904.847
610.187	911
611.355	916.822
612.521	922.335
613.688	927.842
614.854	933.274
616.02	938.61
617.185	943.887
618.351	948.769
619.516	953.291
620.681	956.833
621.846	959.75
623.009	962.166
624.174	964.555
625.337	966.51
626.501	968.234
627.664	969.37
628.826	970.693
629.988	973.337
631.151	976.059
632.313	979.823
633.474	981.68
634.635	983.653
635.797	985.483
636.958	987.345
638.117	989.271
639.278	990.886
640.437	991.86
641.597	992.293
642.756	990.372
643.915	989.16
645.074	988.264
646.233	989.475
647.391	989.478
648.548	989.118
649.706	988.589
650.863	987.883
652.02	987.075
653.176	986.207
654.333	985.275
655.489	984.162
656.645	982.77
657.8	981.247
658.955	979.546
660.11	977.771
661.264	976.486
662.419	975.026
663.573	972.364
664.727	970.11
665.88	969.178
667.033	968.843
668.186	968.807
669.338	969.146
670.491	969.587
671.643	970.39
672.794	971.336
673.945	972.572
675.096	973.795
676.247	975.103
677.398	976.432
678.548	978.853
679.698	981.097
680.847	982.477
681.997	983.468
683.146	984.327
684.294	984.868
685.443	985.475
686.591	986.527
687.739	988.158
688.887	990.123
690.034	992.35
691.181	992.454
692.328	993.232
693.474	992.853
694.62	991.889
695.766	990.242
696.911	988.059
698.057	984.794
699.202	981.047
700.346	977.488
701.49	973.534
702.635	969.319
703.779	964.487
704.922	961.501
706.065	959.723
707.208	957.755
708.351	953.114
709.493	952.235
710.635	952.005
711.776	953.014
712.918	953.015
714.059	954.816
715.2	955.387
716.341	955.034
717.481	954.231
718.621	953.137
719.761	951.777
720.9	950.531
722.04	948.898
723.178	947.351
724.317	945.968
725.455	945.403
726.594	945.201
727.731	945.342
728.868	945.453
730.005	946.746
731.142	948.38
732.279	950.388
733.415	951.961
734.551	953.507
735.686	955.226
736.822	957.398
737.957	960.1
739.092	961.281
740.226	961.539
741.36	961.275
742.495	959.78
743.628	955.555
744.762	951.28
745.895	947.314
747.027	943.462
748.16	939.649
749.292	936.229
750.423	932.859
751.555	929.363
752.686	925.477
753.817	921.223
754.949	916.534
756.079	911.268
757.209	907.297
758.339	904.241
759.469	902.105
760.597	900.486
761.727	899.346
762.856	895.564
763.984	892.121
765.112	888.49
766.24	885.581
767.367	882.931
768.494	880.036
769.622	876.655
770.749	873.312
771.874	869.83
773.001	866.297
774.127	862.801
775.253	859.375
776.377	855.857
777.503	852.415
778.627	847.99
779.751	844.491
780.876	841.207
782	838.578
783.123	836.285
784.246	834.614
785.37	834.134
786.492	833.964
787.614	831.605
788.737	830.175
789.858	830.138
790.979	828.16
792.101	823.055
793.222	819.555
794.342	812.614
795.463	813.084
796.583	814.727
797.702	815.393
798.822	815.478
799.942	815.251
801.06	815.261
802.179	816.169
803.297	817.099
804.415	815.556
805.533	814.633
806.651	811.964
807.768	815.155
808.885	819.377
810.001	818.388
811.118	816.269
812.233	813.734
813.349	810.272
814.464	806.034
815.58	802.06
816.695	797.933
817.809	793.832
818.924	796.875
820.038	789.169
821.152	788.571
822.265	788.517
823.378	788.597
824.491	788.887
825.604	789.519
826.716	793.457
827.828	795.152
828.94	796.296
830.051	796.996
831.162	796.492
832.273	794.48
833.383	790.307
834.494	788.982
835.604	786.97
836.714	784.896
837.823	782.906
838.932	781.514
840.041	780.066
841.15	778.549
842.258	776.6
843.366	774.798
844.474	773.327
845.581	772.401
846.688	771.856
847.795	771.271
848.901	770.626
850.008	770.373
851.115	770.917
852.22	771.267
853.325	770.281
854.43	769.126
855.536	767.811
856.64	765.827
857.745	763.292
858.848	760.471
859.952	757.268
861.055	753.892
862.158	749.963
863.261	745.752
864.364	741.658
865.466	738.296
866.568	734.972
867.67	731.72
868.771	728.673
869.873	725.289
870.973	722.904
872.074	721.462
873.174	721.104
874.274	720.864
875.374	720.424
876.473	720.157
877.572	719.822
878.671	719.637
879.77	717.214
880.868	714.969
881.966	713.032
883.064	711.645
884.161	710.62
885.258	710.248
886.356	710.735
887.452	711.416
888.548	712.068
889.645	711.765
890.74	711.617
891.836	711.702
892.931	712.472
894.025	713.235
895.12	713.576
896.214	711.527
897.308	708.262
898.402	706.601
899.495	705.988
900.588	706.223
901.681	707.22
902.774	709.111
903.866	711.798
904.958	717.318
906.05	720.236
907.142	723.001
908.233	725.69
909.324	728.022
910.414	728.96
911.504	728.38
912.594	727.669
913.684	726.732
914.774	725.693
915.863	720.193
916.952	714.836
918.041	709.106
919.129	701.907
920.217	696.173
921.305	690.108
922.392	684.367
923.48	678.88
924.567	674.4
925.653	670.523
926.74	667.525
927.825	664.711
928.911	662.621
929.997	660.812
931.082	661.465
932.166	661.229
933.252	660.68
934.336	659.901
935.42	659.004
936.504	657.421
937.587	655.776
938.671	655.261
939.753	654.803
940.836	654.373
941.919	653.681
943	652.891
944.082	651.965
945.163	651.106
946.245	650.166
947.326	649.105
948.406	647.229
949.487	645.439
950.567	643.676
951.647	642.299
952.727	641.196
953.805	640.119
954.885	639.013
955.964	637.942
957.042	636.554
958.12	634.855
959.198	633.17
960.276	631.424
961.352	629.612
962.43	627.879
963.507	626.319
964.583	624.492
965.659	622.225
966.735	619.467
967.81	617.239
968.885	615.612
969.961	614.46
971.036	615.117
972.11	616.738
973.184	618.702
974.258	621.074
975.332	623.343
976.405	625.375
977.478	628.077
978.551	630.905
979.624	634.049
980.696	637.974
981.767	641.691
982.839	644.203
983.911	646.18
984.982	647.55
986.052	648.235
987.123	648.169
988.193	647.407
989.263	645.529
990.333	644.3
991.403	643.023
992.471	641.526
993.54	639.358
994.608	637.032
995.677	634.711
996.745	633.169
997.812	631.446
998.88	629.606
999.947	626.875
1001.01	623.724
1002.08	620.315
1003.15	616.628
1004.21	613.264
1005.28	609.779
1006.34	605.712
1007.41	601.228
1008.47	596.987
1009.54	593.124
1010.6	589.36
1011.67	585.906
1012.73	582.672
1013.79	579.82
1014.86	577.387
1015.92	575.369
1016.98	573.618
1018.05	572.629
1019.11	571.361
1020.17	569.93
1021.23	568.014
1022.29	566.948
1023.35	566.16
1024.41	564.844
1025.47	563.393
1026.53	561.735
1027.59	559.827
1028.65	557.712
1029.71	555.554
1030.77	553.471
1031.83	551.407
1032.89	550.118
1033.95	549.026
1035	549.624
1036.06	551.089
1037.12	552.623
1038.18	554.569
1039.23	557.348
1040.29	558.585
1041.35	559.85
1042.4	561.463
1043.46	563.964
1044.51	564.498
1045.57	563.466
1046.62	561.182
1047.68	558.115
1048.73	554.478
1049.79	551.357
1050.84	548.527
1051.89	545.485
1052.95	542.677
1054	541.198
1055.05	540.231
1056.1	539.651
1057.16	538.933
1058.21	538.456
1059.26	538.325
1060.31	539.765
1061.36	540.333
1062.41	540.292
1063.46	539.953
1064.51	539.582
1065.56	538.978
1066.61	538.183
1067.66	537.515
1068.71	536.754
1069.76	535.584
1070.81	533.167
1071.85	530.043
1072.9	527.809
1073.95	525.95
1075	524.502
1076.04	523.229
1077.09	522.177
1078.14	521.173
1079.18	520.392
1080.23	519.512
1081.27	516.706
1082.32	513.768
1083.36	511.134
1084.41	509.496
1085.45	508.983
1086.5	508.821
1087.54	508.858
1088.59	509.134
1089.63	509.471
1090.67	509.679
1091.71	508.147
1092.76	506.786
1093.8	505.55
1094.84	504.485
1095.88	503.694
1096.92	503.108
1097.97	502.738
1099.01	502.875
1100.05	503.304
1101.09	503.669
1102.13	503.522
1103.17	503.931
1104.21	504.327
1105.25	504.901
1106.28	505.469
1107.32	505.755
1108.36	505.582
1109.4	505.085
1110.44	504.775
1111.47	504.37
1112.51	503.4
1113.55	501.646
1114.59	499.642
1115.62	497.204
1116.66	494.641
1117.69	491.536
1118.73	489.195
1119.77	487.773
1120.8	486.553
1121.84	484.949
1122.87	483.572
1123.9	482.654
1124.94	482.517
1125.97	482.878
1127	483.657
1128.04	484.464
1129.07	485.287
1130.1	486.288
1131.13	487.782
1132.17	490.157
1133.2	492.895
1134.23	495.82
1135.26	498.426
1136.29	501.093
1137.32	503.863
1138.35	506.954
1139.38	510.001
1140.41	512.584
1141.44	514.223
1142.47	515.39
1143.5	516.709
1144.53	518.737
1145.56	521.294
1146.59	524.203
1147.61	527.295
1148.64	530.504
1149.67	533.475
1150.7	536.039
1151.72	538.12
1152.75	539.317
1153.77	539.265
1154.8	537.19
1155.83	533.758
1156.85	530.544
1157.88	526.021
1158.9	520.362
1159.93	512.83
1160.95	505.16
1161.97	495.622
1163	485.36
1164.02	483.304
1165.04	477.98
1166.07	474.143
1167.09	471.255
1168.11	470.247
1169.13	470.369
1170.16	471.611
1171.18	473.735
1172.2	477.155
1173.22	480.894
1174.24	485.012
1175.26	488.897
1176.28	492.148
1177.3	494.842
1178.32	496.901
1179.34	498.751
1180.36	499.315
1181.38	497.939
1182.4	496.278
1183.41	494.139
1184.43	491.787
1185.45	489.119
1186.47	485.751
1187.48	482.025
1188.5	477.467
1189.52	471.579
1190.53	465.85
1191.55	460.468
1192.56	455.763
1193.58	451.847
1194.59	448.688
1195.61	446.866
1196.62	442.817
1197.64	439.533
1198.65	437.532
1199.67	436.733
1200.68	436.773
1201.69	437.312
1202.71	438.149
1203.72	439.09
1204.73	440.183
1205.74	441.437
1206.76	442.98
1207.77	444.601
1208.78	445.052
1209.79	445.786
1210.8	446.322
1211.81	446.656
1212.82	446.722
1213.83	446.493
1214.84	446.155
1215.85	445.851
1216.86	445.792
1217.87	445.596
1218.88	445.95
1219.88	446.608
1220.89	447.468
1221.9	448.361
1222.91	448.952
1223.92	449.001
1224.92	448.484
1225.93	447.467
1226.93	445.358
1227.94	442.195
1228.95	437.738
1229.95	432.93
1230.96	427.855
1231.96	423.02
1232.97	419.323
1233.97	416.093
1234.98	413.099
1235.98	411.612
1236.98	410.847
1237.99	410.24
1238.99	409.858
1239.99	409.219
1241	407.436
1242	407.592
1243	405.118
1244	399.012
1245	392.517
1246	388.048
1247.01	385.206
1248.01	384.011
1249.01	384.046
1250.01	389.634
1251.01	389.509
1252.01	390.004
1253	390.977
1254	391.959
1255	392.304
1256	393.724
1257	397.247
1258	397.879
1258.99	397.734
1259.99	397.43
1260.99	396.882
1261.99	396.074
1262.98	395.057
1263.98	393.94
1264.98	392.595
1265.97	391.26
1266.97	389.724
1267.96	388.003
1268.96	385.629
1269.95	383.597
1270.95	381.706
1271.94	380.303
1272.93	379.371
1273.93	378.84
1274.92	378.929
1275.91	379.616
1276.91	380.814
1277.9	382.379
1278.89	384.103
1279.88	385.995
1280.87	387.753
1281.87	389.363
1282.86	390.537
1283.85	391.21
1284.84	391.248
1285.83	390.514
1286.82	388.671
1287.81	386.012
1288.8	383.118
1289.79	380.041
1290.78	376.702
1291.76	373.318
1292.75	369.53
1293.74	367.757
1294.73	366.499
1295.72	364.959
1296.7	363.897
1297.69	363.501
1298.68	363.561
1299.66	364.056
1300.65	364.795
1301.64	365.695
1302.62	366.528
1303.61	367.204
1304.59	367.433
1305.58	367.022
1306.56	365.794
1307.55	364.128
1308.53	361.844
1309.51	359.725
1310.5	357.675
1311.48	356.836
1312.46	356.341
1313.45	356.152
1314.43	354.85
1315.41	356.766
1316.39	359.815
1317.38	364.259
1318.36	369.421
1319.34	376.521
1320.32	382.617
1321.3	387.298
1322.28	391.405
1323.26	393.276
1324.24	395.96
1325.22	396.659
1326.2	395.648
1327.18	392.765
1328.16	388.956
1329.13	380.496
1330.11	373.344
1331.09	368.953
1332.07	365.269
1333.04	360.869
1334.02	355.841
1335	351.339
1335.97	347.681
1336.95	347.812
1337.93	346.716
1338.9	345.763
1339.88	344.813
1340.85	344.168
1341.83	343.677
1342.8	343.186
1343.78	342.724
1344.75	341.794
1345.72	340.916
1346.7	340.485
1347.67	339.028
1348.65	337.225
1349.62	334.27
1350.59	332.138
1351.56	332.526
1352.53	329.922
1353.51	328.273
1354.48	327.2
1355.45	327.98
1356.42	327.954
1357.39	321.973
1358.36	321.512
1359.33	322.452
1360.3	318.641
1361.27	317.868
1362.24	318.673
1363.21	319.912
1364.18	318.832
1365.14	317.876
1366.11	317.204
1367.08	316.741
1368.05	316.644
1369.02	316.778
1369.98	316.801
1370.95	317.145
1371.92	317.42
1372.88	317.755
1373.85	317.044
1374.81	315.384
1375.78	313.409
1376.74	311.944
1377.71	310.587
1378.68	309.376
1379.64	308.674
1380.6	308.168
1381.57	307.929
1382.53	308.319
1383.49	309.094
1384.46	310.025
1385.42	310.872
1386.38	311.635
1387.34	311.482
1388.31	310.958
1389.27	309.809
1390.23	308.648
1391.19	307.395
1392.15	306.156
1393.11	304.706
1394.07	303.29
1395.03	301.915
1395.99	300.626
1396.95	299.362
1397.91	298.235
1398.87	297.377
1399.83	296.686
1400.79	295.343
1401.75	295.197
1402.7	293.915
1403.66	291.898
1404.62	289.317
1405.58	287.049
1406.53	288.082
1407.49	289.671
1408.45	292.386
1409.4	290.984
1410.36	289.7
1411.31	288.559
1412.27	287.635
1413.23	286.916
1414.18	286.413
1415.13	286.188
1416.09	286.29
1417.04	286.692
1418	287.456
1418.95	288.495
1419.9	289.738
1420.86	291.092
1421.81	292.335
1422.76	293.269
1423.71	293.531
1424.67	293.639
1425.62	293.508
1426.57	293.26
1427.52	292.958
1428.47	292.769
1429.42	292.529
1430.37	292.55
1431.32	292.644
1432.27	292.955
1433.22	293.298
1434.17	293.814
1435.12	294.419
1436.07	294.851
1437.02	295.265
1437.96	295.512
1438.91	295.358
1439.86	294.922
1440.81	294.355
1441.75	293.64
1442.7	292.837
1443.65	291.934
1444.59	290.839
1445.54	289.7
1446.49	288.414
1447.43	286.704
1448.38	284.686
1449.32	282.227
1450.27	279.914
1451.21	277.848
1452.15	276.166
1453.1	275.097
1454.04	274.052
1454.98	273.035
1455.93	272.158
1456.87	271.424
1457.81	270.918
1458.76	270.785
1459.7	269.732
1460.64	268.776
1461.58	268.829
1462.52	269.05
1463.46	269.11
1464.4	269.195
1465.34	269.398
1466.28	268.707
1467.22	267.601
1468.16	266.861
1469.1	266.532
1470.04	266.754
1470.98	266.754
1471.92	266.812
1472.86	266.715
1473.8	266.441
1474.73	266.287
1475.67	266.091
1476.61	265.986
1477.55	265.975
1478.48	265.996
1479.42	265.85
1480.36	265.451
1481.29	264.879
1482.23	264.199
1483.16	263.498
1484.1	262.966
1485.03	262.551
1485.97	263.01
1486.9	263.639
1487.84	264.428
1488.77	265.25
1489.7	265.966
1490.64	265.665
1491.57	264.153
1492.5	262.82
1493.44	261.696
1494.37	260.731
1495.3	259.901
1496.23	259.235
1497.16	258.662
1498.09	258.251
1499.02	257.844
1499.96	257.216
1500.89	255.03
1501.82	253.01
1502.75	251.276
1503.68	250.041
1504.61	249.596
1505.53	249.729
1506.46	250.95
1507.39	253.055
1508.32	256.357
1509.25	260.82
1510.18	266.5
1511.1	273.154
1512.03	280.794
1512.96	288.435
1513.88	295.223
1514.81	302.256
1515.74	309.543
1516.66	317.017
1517.59	324.227
1518.51	331.115
1519.44	337.136
1520.36	341.876
1521.29	344.58
1522.21	345.595
1523.14	345.41
1524.06	344.724
1524.98	343.418
1525.91	341.256
1526.83	337.994
1527.75	334.053
1528.68	328.791
1529.6	322.849
1530.52	316.291
1531.44	309.489
1532.36	302.77
1533.29	296.312
1534.21	290.519
1535.13	285.105
1536.05	280.019
1536.97	275.411
1537.89	270.711
1538.81	265.998
1539.73	261.772
1540.65	258.259
1541.56	255.599
1542.48	253.877
1543.4	253.435
1544.32	253.56
1545.24	254.714
1546.16	257.146
1547.07	258.891
1547.99	258.767
1548.91	258.561
1549.82	258.122
1550.74	256.339
1551.66	252.291
1552.57	246.812
1553.49	240.555
1554.4	238.075
1555.32	236.233
1556.23	234.913
1557.15	233.798
1558.06	232.216
1558.97	231.115
1559.89	229.864
1560.8	228.544
1561.71	227.052
1562.63	225.351
1563.54	223.413
1564.45	221.134
1565.36	217.883
1566.28	214.977
1567.19	212.553
1568.1	211.044
1569.01	209.678
1569.92	208.76
1570.83	208.382
1571.74	208.613
1572.65	209.116
1573.56	209.802
1574.47	210.573
1575.38	211.417
1576.29	212.168
1577.2	212.927
1578.11	213.538
1579.01	214.031
1579.92	214.325
1580.83	214.628
1581.74	214.652
1582.64	214.256
1583.55	213.47
1584.46	212.65
1585.36	211.947
1586.27	211.167
1587.18	209.996
1588.08	209.287
1588.99	208.727
1589.89	208.505
1590.8	208.49
1591.7	208.972
1592.61	209.535
1593.51	210.397
1594.41	211.206
1595.32	211.784
1596.22	212.423
1597.12	213.144
1598.03	213.257
1598.93	213.046
1599.83	212.599
1600.73	212.512
1601.64	212.517
1602.54	212.607
1603.44	212.672
1604.34	212.811
1605.24	212.591
1606.14	212.234
1607.04	212.034
1607.94	211.733
1608.84	211.541
1609.74	211.315
1610.64	211.06
1611.54	210.846
1612.44	210.332
1613.33	209.457
1614.23	208.859
1615.13	208.031
1616.03	206.85
1616.92	205.653
1617.82	204.635
1618.72	203.553
1619.61	202.195
1620.51	200.645
1621.41	199.302
1622.3	197.871
1623.2	196.222
1624.09	194.718
1624.99	193.838
1625.88	193.696
1626.78	193.924
1627.67	194.499
1628.57	195.191
1629.46	195.832
1630.35	196.957
1631.25	197.783
1632.14	198.28
1632.85	198.453
1633.78	198.267
1634.71	198.132
1635.64	198.81
1636.57	198.729
1637.5	198.2
1638.42	196.334
1639.35	194.655
1640.28	193.949
1641.21	193.144
1642.13	192.553
1643.06	192.451
1643.99	191.733
1644.91	191.517
1645.84	191.472
1646.77	191.711
1647.69	192.102
1648.62	192.114
1649.54	192.739
1650.47	193.025
1651.39	193.225
1652.32	192.84
1653.24	191.47
1654.17	191.285
1655.09	191.21
1656.01	191.149
1656.94	191.564
1657.86	191.235
1658.78	190.718
1659.71	189.406
1660.63	187.751
1661.55	185.556
1662.47	184.244
1663.4	182.645
1664.32	181.96
1665.24	181.483
1666.16	181.02
1667.08	181.107
1668	181.501
1668.92	182.601
1669.84	182.787
1670.76	183.042
1671.68	183.281
1672.6	183.824
1673.52	184.533
1674.44	185.22
1675.36	185.374
1676.28	184.756
1677.2	184.384
1678.12	183.928
1679.03	183.234
1679.95	182.522
1680.87	182.098
1681.79	181.256
1682.7	180.636
1683.62	179.846
1684.54	178.448
1685.45	177.044
1686.37	176.24
1687.29	175.917
1688.2	175.69
1689.12	175.565
1690.03	175.474
1690.95	175.231
1691.86	175.333
1692.78	174.939
1693.69	174.461
1694.61	174.739
1695.52	174.686
1696.43	174.302
1697.35	174.135
1698.26	174.405
1699.17	174.407
1700.09	173.542
1701	172.995
1701.91	172.502
1702.82	172.156
1703.74	171.489
1704.65	170.925
1705.56	170.859
1706.47	170.718
1707.38	170.678
1708.29	170.145
1709.2	170.132
1710.11	169.677
1711.02	169.715
1711.93	169.032
1712.84	168.733
1713.75	167.615
1714.66	166.775
1715.57	165.64
1716.48	164.924
1717.39	164.358
1718.3	163.251
1719.21	162.264
1720.11	162.049
1721.02	161.908
1721.93	161.381
1722.84	161.617
1723.74	162.1
1724.65	162.675
1725.56	163.03
1726.46	162.841
1727.37	162.705
1728.28	162.442
1729.18	161.974
1730.09	161.523
1730.99	161.199
1731.9	161.358
1732.8	160.993
1733.71	160.387
1734.61	160.294
1735.52	160.272
1736.42	159.929
1737.32	159.763
1738.23	159.941
1739.13	159.764
1740.03	160.248
1740.94	160.721
1741.84	161.329
1742.74	161.428
1743.64	161.202
1744.54	161.032
1745.45	161.226
1746.35	161.289
1747.25	161.514
1748.15	162.03
1749.05	162.249
1749.95	162.109
1750.85	161.314
1751.75	160.674
1752.65	159.468
1753.55	158.077
1754.45	156.774
1755.35	155.806
1756.25	154.731
1757.15	153.875
1758.05	153.339
1758.94	152.373
1759.84	151.328
1760.74	150.499
1761.64	149.868
1762.53	150.081
1763.43	150.19
1764.33	150.461
1765.23	150.361
1766.12	150.209
1767.02	150.487
1767.91	150.511
1768.81	150.552
1769.71	150.921
1770.6	150.769
1771.5	150.95
1772.39	151.302
1773.29	151.351
1774.18	151.372
1775.07	151.546
1775.97	151.476
1776.86	150.872
1777.76	150.753
1778.65	150.69
1779.54	150.639
1780.44	150.259
1781.33	149.956
1782.22	149.748
1783.11	149.209
1784.01	149.207
1784.9	148.98
1785.79	149.27
1786.68	148.938
1787.57	148.461
1788.46	148.254
1789.35	147.053
1790.24	144.177
1791.13	143.176
1792.02	142.52
1792.91	142.398
1793.8	142.932
1794.69	144.162
1795.58	146.428
1796.47	148.623
1797.36	149.545
1798.25	144.098
1799.14	130.956
