Acq. time (s)=	15
Accumulations=	2
Range (cm-¹)=	600...1800
Windows=	2
Autofocus=	Off
AutoExposure=	On
Spike filter=	Multiple accum.
Delay time (s)=	1
Binning=	1
Readout mode=	Signal
DeNoise=	Standard
ICS correction=	Off
Dark correction=	Off
Inst. Process=	Off
Instrument=	XploRA
Detector=	Syncerity
Objective=	x20LWD
Grating=	1200 gr/mm
Filter=	25%
Laser (nm)=	785 
Slit (µm)=	100 
Hole (µm)=	300 
Laser pol=	None
Raman pol=	None
Output=	Camera
StageXY=	Marzhauser
StageZ=	
X (µm)=	184.9
Y (µm)=	-32.9
Project=	
Sample=	
Site=	
Title=	To2-T
Remark=	
Date=	14.10.2022 19:24
Acquired=	14.10.2022 19:24:22
600.787	463.715
601.956	470.68
603.126	477.127
604.294	482.879
605.463	488.327
606.631	492.997
607.8	497.332
608.967	501.427
610.135	505.281
611.302	509.027
612.468	512.706
613.635	516.434
614.802	519.753
615.968	523.494
617.133	527.052
618.299	530.484
619.464	533.682
620.629	536.597
621.793	538.766
622.958	540.729
624.121	542.441
625.285	543.714
626.448	544.677
627.612	544.957
628.774	544.984
629.937	544.823
631.099	544.547
632.261	544.551
633.423	544.549
634.584	544.791
635.745	545.165
636.906	545.839
638.066	546.57
639.227	547.456
640.386	548.477
641.546	549.468
642.705	549.874
643.864	548.408
645.023	546.328
646.181	546.242
647.339	546.552
648.497	547.174
649.655	548.047
650.812	548.944
651.969	550.035
653.125	551.133
654.282	552.437
655.438	553.816
656.593	555.291
657.75	556.775
658.905	558.35
660.059	559.946
661.214	561.616
662.368	563.157
663.522	564.706
664.676	565.631
665.83	565.776
666.983	565.972
668.136	566.231
669.288	566.386
670.441	566.662
671.592	566.652
672.744	566.618
673.895	566.436
675.046	566.191
676.197	565.865
677.348	565.348
678.498	564.444
679.648	563.479
680.798	562.599
681.947	562.408
683.096	562.789
684.245	563.75
685.394	565.015
686.542	566.564
687.69	568.822
688.837	571.043
689.984	573.169
691.132	574.94
692.278	576.184
693.425	577.106
694.571	577.724
695.717	578.206
696.863	578.019
698.008	577.514
699.152	576.743
700.298	575.792
701.442	574.677
702.586	573.38
703.73	571.976
704.873	570.773
706.017	569.39
707.16	568.081
708.302	566.515
709.445	564.914
710.586	563.239
711.729	561.55
712.87	559.953
714.012	558.771
715.152	557.468
716.293	556.572
717.433	555.939
718.573	555.274
719.713	553.438
720.853	553.654
721.991	555.254
723.131	554.952
724.269	553.907
725.408	552.163
726.545	550.129
727.683	547.877
728.821	545.516
729.958	543.298
731.095	541.485
732.231	540.498
733.368	540.444
734.503	541.418
735.639	544.103
736.775	547.6
737.91	549.89
739.045	552.224
740.179	554.469
741.313	556.68
742.447	558.907
743.581	561.135
744.714	563.368
745.847	565.097
746.98	565.957
748.113	565.681
749.245	564.394
750.377	562.325
751.509	559.405
752.64	555.882
753.771	551.943
754.902	547.969
756.033	544.046
757.163	539.904
758.293	535.994
759.423	532.241
760.551	528.979
761.681	526.171
762.81	523.929
763.938	522.005
765.066	521.034
766.194	520.27
767.321	519.5
768.449	518.554
769.576	517.171
770.703	515.626
771.83	513.536
772.955	511.321
774.081	509.022
775.207	506.721
776.332	504.478
777.457	502.276
778.582	500.574
779.707	498.73
780.831	497.038
781.954	495.489
783.078	494.088
784.201	492.953
785.324	492.192
786.447	492.282
787.569	492.661
788.691	493.13
789.813	493.483
790.935	493.27
792.056	492.587
793.177	491.429
794.297	489.338
795.418	486.802
796.539	484.016
797.658	482.018
798.777	480.157
799.897	478.441
801.016	476.961
802.134	475.268
803.253	473.552
804.371	471.849
805.489	470.355
806.606	469.003
807.723	467.695
808.84	467.093
809.957	466.811
811.073	466.815
812.19	466.911
813.305	467.182
814.421	467.533
815.536	467.857
816.651	467.741
817.766	467.601
818.88	467.562
819.994	467.513
821.108	467.332
822.221	467.2
823.335	465.856
824.448	463.663
825.56	461.515
826.673	459.467
827.784	458.142
828.897	456.983
830.008	456.16
831.119	455.564
832.23	455.152
833.341	455.249
834.451	455.613
835.561	456.205
836.671	456.577
837.78	456.749
838.89	456.588
839.998	455.817
841.108	454.362
842.216	452.294
843.324	449.868
844.431	447.401
845.539	445.354
846.646	443.615
847.753	442.178
848.859	441.293
849.966	441.26
851.071	441.527
852.178	441.837
853.283	441.71
854.388	441.697
855.494	441.35
856.598	440.756
857.703	440.095
858.806	439.244
859.91	438.335
861.014	437.332
862.116	436.267
863.22	435.292
864.322	434.627
865.425	433.993
866.527	433.363
867.628	432.613
868.73	431.826
869.831	429.277
870.932	426.583
872.032	423.947
873.133	421.399
874.233	419.302
875.333	417.504
876.432	416.03
877.532	414.769
878.631	413.812
879.729	413.101
880.828	412.625
881.926	412.232
883.023	412.296
884.121	412.768
885.218	413.465
886.315	414.294
887.412	415.302
888.508	416.358
889.604	417.026
890.699	417.642
891.795	418.009
892.89	418.3
893.985	418.278
895.08	417.987
896.174	417.469
897.268	416.601
898.362	415.557
899.456	414.363
900.549	413.121
901.642	411.813
902.734	410.748
903.827	409.481
904.919	408.503
906.011	407.763
907.102	407.577
908.193	408.433
909.284	410.082
910.375	411.689
911.465	413.15
912.555	413.959
913.645	414.275
914.734	414.049
915.824	413.347
916.913	412.218
918.001	410.799
919.09	408.586
920.177	405.996
921.266	403.138
922.353	400.21
923.44	397.318
924.527	394.283
925.614	391.521
926.7	389.249
927.786	388.071
928.873	387.903
929.958	387.672
931.043	386.276
932.128	384.637
933.213	382.817
934.297	380.84
935.381	378.903
936.465	376.992
937.549	375.058
938.632	373.272
939.715	371.582
940.798	369.571
941.881	367.615
942.962	365.835
944.044	364.114
945.125	362.769
946.207	361.987
947.288	361.577
948.368	361.43
949.449	361.553
950.529	361.839
951.61	362.275
952.689	362.888
953.769	363.544
954.847	364.144
955.926	364.626
957.004	365.315
958.082	365.821
959.16	366.095
960.238	365.6
961.316	364.846
962.392	363.043
963.469	360.541
964.546	358.76
965.622	357.585
966.698	357.017
967.774	356.62
968.849	356.536
969.924	356.6
970.998	357.208
972.073	359.191
973.148	359.643
974.221	359.762
975.295	359.651
976.369	359.902
977.441	360.555
978.514	361.367
979.587	362.426
980.659	363.608
981.731	364.842
982.802	366.249
983.874	367.533
984.945	368.902
986.016	366.556
987.087	364.516
988.157	363.012
989.227	362.222
990.296	362.299
991.366	363.852
992.435	364.318
993.504	364.877
994.573	366.409
995.641	364.99
996.709	362.985
997.777	359.477
998.844	356.543
999.911	354.626
1000.98	352.734
1002.05	351.499
1003.11	350.349
1004.18	349.221
1005.24	347.959
1006.31	346.644
1007.37	345.016
1008.44	343.147
1009.5	341.307
1010.57	339.286
1011.63	336.987
1012.7	334.235
1013.76	331.095
1014.82	326.481
1015.89	322.29
1016.95	319.686
1018.01	317.591
1019.07	315.831
1020.13	314.156
1021.2	314.742
1022.26	313.813
1023.32	312.421
1024.38	311.863
1025.44	312.07
1026.5	313.6
1027.56	315.898
1028.62	316.053
1029.68	315.493
1030.74	313.747
1031.8	310.32
1032.85	309.25
1033.91	308.8
1034.97	308.737
1036.03	308.687
1037.09	308.792
1038.14	309.459
1039.2	310.415
1040.26	311.162
1041.31	311.625
1042.37	311.831
1043.42	312.025
1044.48	312.234
1045.53	312.283
1046.59	312.275
1047.64	311.641
1048.7	310.294
1049.75	308.951
1050.81	307.524
1051.86	306.081
1052.91	304.727
1053.97	303.504
1055.02	302.24
1056.07	300.991
1057.12	300.145
1058.17	299.449
1059.23	298.812
1060.28	298.323
1061.33	297.892
1062.38	297.48
1063.43	297.111
1064.48	296.778
1065.53	296.462
1066.58	296.18
1067.63	295.659
1068.68	295.266
1069.72	294.895
1070.77	294.457
1071.82	293.963
1072.87	293.543
1073.92	293.08
1074.96	292.642
1076.01	292.103
1077.06	291.706
1078.1	291.286
1079.15	290.543
1080.2	289.498
1081.24	287.388
1082.29	285.249
1083.33	283.005
1084.38	280.644
1085.42	278.564
1086.47	276.447
1087.51	274.664
1088.55	273.141
1089.6	272.022
1090.64	271.275
1091.68	270.779
1092.73	270.906
1093.77	271.935
1094.81	273.236
1095.85	274.569
1096.89	275.398
1097.93	276.135
1098.98	276.621
1100.02	276.978
1101.06	277.241
1102.1	277.426
1103.14	277.49
1104.18	277.469
1105.21	277.348
1106.25	277.095
1107.29	276.815
1108.33	276.49
1109.37	276.068
1110.41	275.733
1111.44	275.231
1112.48	274.79
1113.52	273.987
1114.56	273.096
1115.59	272.145
1116.63	271.15
1117.66	270.113
1118.7	269.087
1119.73	268.36
1120.77	267.525
1121.8	266.734
1122.84	265.957
1123.87	265.337
1124.91	264.511
1125.94	263.691
1126.97	263.145
1128.01	263.334
1129.04	264.487
1130.07	265.642
1131.11	266.755
1132.14	267.836
1133.17	268.957
1134.2	270.197
1135.23	271.633
1136.26	273.216
1137.29	275.015
1138.32	277.024
1139.35	279.242
1140.38	282.028
1141.41	286.36
1142.44	291.495
1143.47	289.877
1144.5	286.705
1145.53	281.474
1146.56	282.423
1147.58	285.343
1148.61	290.159
1149.64	293.005
1150.67	296.8
1151.69	300.376
1152.72	303.526
1153.75	306.104
1154.77	308.048
1155.8	309.15
1156.82	308.743
1157.85	306.617
1158.87	303.915
1159.9	297.271
1160.92	291.921
1161.95	283.715
1162.97	276.435
1163.99	269.917
1165.02	264.298
1166.04	259.528
1167.06	256.028
1168.08	253.268
1169.11	257.938
1170.13	258.249
1171.15	258.658
1172.17	259.21
1173.19	259.808
1174.21	260.397
1175.23	261.081
1176.25	261.636
1177.27	262.001
1178.29	260.772
1179.31	261.345
1180.33	261.748
1181.35	261.96
1182.37	262.566
1183.39	263.143
1184.4	263.642
1185.42	264.024
1186.44	264.226
1187.46	264.19
1188.47	263.947
1189.49	263.113
1190.51	262.293
1191.52	261.181
1192.54	259.719
1193.55	257.742
1194.57	254.373
1195.58	251.053
1196.6	247.94
1197.61	245.276
1198.63	242.865
1199.64	240.557
1200.65	238.128
1201.67	236.094
1202.68	235.065
1203.69	234.905
1204.7	235.61
1205.72	237.02
1206.73	238.833
1207.74	241.154
1208.75	242.347
1209.76	243.763
1210.77	245.214
1211.78	246.014
1212.79	244.958
1213.8	243.533
1214.81	242.477
1215.82	241.878
1216.83	241.591
1217.84	241.46
1218.85	241.39
1219.86	241.459
1220.87	241.682
1221.87	242.036
1222.88	243.09
1223.89	244.9
1224.9	246.601
1225.9	247.734
1226.91	248.107
1227.92	247.878
1228.92	246.666
1229.93	244.244
1230.93	241.37
1231.94	238.433
1232.94	235.331
1233.95	232.155
1234.95	229.036
1235.95	225.778
1236.96	222.63
1237.96	219.863
1238.96	217.315
1239.97	215.555
1240.97	214.446
1241.97	213.449
1242.97	212.836
1243.98	212.64
1244.98	212.535
1245.98	212.559
1246.98	212.637
1247.98	212.183
1248.98	211.548
1249.98	210.939
1250.98	210.276
1251.98	209.638
1252.98	209.033
1253.98	208.503
1254.98	207.993
1255.98	207.562
1256.97	207.257
1257.97	206.971
1258.97	206.85
1259.97	206.745
1260.97	206.695
1261.96	206.619
1262.96	206.849
1263.95	207.159
1264.95	207.528
1265.95	208.1
1266.94	208.299
1267.94	207.689
1268.93	207.109
1269.93	206.664
1270.92	206.532
1271.92	206.249
1272.91	205.182
1273.9	204.408
1274.9	203.855
1275.89	203.57
1276.88	203.657
1277.87	203.871
1278.87	204.348
1279.86	204.951
1280.85	205.692
1281.84	206.493
1282.83	207.514
1283.82	208.559
1284.81	209.356
1285.81	209.94
1286.8	210.307
1287.79	210.444
1288.77	210.01
1289.76	208.006
1290.75	205.113
1291.74	202.24
1292.73	199.682
1293.72	197.789
1294.71	196.134
1295.69	194.873
1296.68	193.949
1297.67	193.412
1298.65	193.127
1299.64	193.191
1300.63	193.909
1301.61	194.946
1302.6	196.324
1303.58	197.754
1304.57	199.115
1305.55	199.724
1306.54	200.119
1307.52	198.922
1308.51	198.181
1309.49	196.599
1310.48	194.855
1311.46	193.37
1312.44	192.329
1313.42	191.52
1314.41	190.19
1315.39	188.714
1316.37	187.64
1317.35	187.203
1318.33	187.513
1319.32	188.896
1320.3	191.118
1321.28	194.158
1322.26	197.822
1323.24	202.33
1324.22	207.011
1325.2	215.434
1326.18	215.586
1327.15	215.063
1328.13	213.998
1329.11	212.256
1330.09	209.628
1331.07	205.99
1332.05	201.723
1333.02	198.852
1334	196.066
1334.98	193.54
1335.95	190.852
1336.93	188.493
1337.91	186.682
1338.88	185.502
1339.86	184.76
1340.83	184.078
1341.81	183.753
1342.78	183.995
1343.76	184.284
1344.73	183.685
1345.7	183.114
1346.68	182.389
1347.65	181.724
1348.62	180.978
1349.6	180.151
1350.57	179.202
1351.54	178.88
1352.51	178.593
1353.49	178.615
1354.46	178.474
1355.43	178.188
1356.4	177.46
1357.37	176.696
1358.34	175.721
1359.31	174.66
1360.28	173.497
1361.25	171.759
1362.22	170.063
1363.19	168.365
1364.16	166.767
1365.12	165.559
1366.09	164.621
1367.06	163.924
1368.03	163.606
1369	163.686
1369.96	164.044
1370.93	164.855
1371.9	166.319
1372.86	167.955
1373.83	169.469
1374.79	170.124
1375.76	170.58
1376.73	170.943
1377.69	170.931
1378.66	170.713
1379.62	170.153
1380.58	169.446
1381.55	168.731
1382.51	167.936
1383.48	167.19
1384.44	166.429
1385.4	165.907
1386.36	165.528
1387.33	165.396
1388.29	165.283
1389.25	165.67
1390.21	166.111
1391.17	166.556
1392.13	166.941
1393.09	167.178
1394.06	166.793
1395.01	166.416
1395.97	165.832
1396.93	165.119
1397.89	164.213
1398.85	163.146
1399.81	161.908
1400.77	160.643
1401.73	159.364
1402.69	158.156
1403.64	157.258
1404.6	157.219
1405.56	157.265
1406.52	156.649
1407.47	155.988
1408.43	155.619
1409.39	154.916
1410.34	153.656
1411.3	152.881
1412.25	152.231
1413.21	152.198
1414.16	152.493
1415.12	152.763
1416.07	153.153
1417.03	153.617
1417.98	153.75
1418.93	153.982
1419.89	154.091
1420.84	153.947
1421.79	153.733
1422.74	153.38
1423.7	153.058
1424.65	152.797
1425.6	152.623
1426.55	152.537
1427.5	152.638
1428.45	152.824
1429.4	153.248
1430.35	154.091
1431.3	155.076
1432.25	156.325
1433.2	157.414
1434.15	160.952
1435.1	160.886
1436.05	160.803
1437	160.634
1437.95	142.227
1438.89	160.803
1439.84	161.616
1440.79	161.586
1441.74	159.908
1442.68	158.107
1443.63	156.417
1444.58	155.753
1445.52	153.667
1446.47	152.271
1447.41	150.282
1448.36	145.913
1449.3	145.502
1450.25	145.547
1451.19	146.102
1452.14	149.482
1453.08	150.221
1454.03	150.761
1454.97	150.921
1455.91	150.473
1456.85	148.349
1457.8	146.338
1458.74	144.526
1459.68	142.896
1460.62	141.404
1461.57	140.097
1462.51	139.016
1463.45	138.081
1464.39	137.347
1465.33	136.744
1466.27	136.299
1467.21	136.12
1468.15	135.999
1469.09	136.243
1470.03	136.594
1470.97	137.021
1471.9	137.527
1472.84	138.026
1473.78	138.56
1474.72	138.676
1475.66	138.219
1476.59	137.666
1477.53	137.347
1478.47	137.065
1479.4	136.899
1480.34	137.528
1481.28	137.98
1482.21	139.044
1483.15	140.115
1484.08	141.147
1485.02	142.133
1485.95	142.999
1486.89	143.237
1487.82	142.159
1488.76	141.08
1489.69	140.056
1490.62	139.097
1491.56	138.224
1492.49	137.484
1493.42	136.881
1494.35	136.446
1495.29	136.214
1496.22	136.116
1497.15	136.378
1498.08	136.901
1499.01	137.197
1499.94	136.612
1500.87	136.037
1501.8	135.777
1502.73	135.765
1503.66	136.207
1504.59	136.967
1505.52	137.74
1506.45	137.921
1507.38	138.304
1508.31	139.061
1509.23	140.604
1510.16	142.754
1511.09	144.236
1512.02	145.258
1512.94	146.722
1513.87	148.51
1514.8	150.735
1515.72	153.596
1516.65	157.34
1517.58	161.393
1518.5	165.672
1519.43	169.828
1520.35	173.835
1521.28	177.109
1522.2	179.262
1523.12	181.175
1524.05	182.789
1524.97	184.189
1525.9	185.455
1526.82	186.651
1527.74	187.576
1528.66	187.835
1529.59	186.464
1530.51	184.19
1531.43	181.09
1532.35	177.626
1533.27	173.849
1534.19	170.162
1535.11	166.424
1536.04	162.698
1536.96	159.128
1537.88	155.329
1538.8	151.421
1539.71	147.611
1540.63	144.192
1541.55	141.137
1542.47	138.633
1543.39	136.742
1544.31	135.809
1545.23	135.406
1546.14	135.218
1547.06	135.668
1547.98	136.205
1548.89	136.679
1549.81	137.059
1550.73	137.307
1551.64	137.384
1552.56	137.196
1553.47	136.931
1554.39	136.348
1555.31	135.353
1556.22	133.989
1557.13	132.558
1558.05	131.094
1558.96	129.862
1559.88	128.693
1560.79	127.14
1561.7	125.584
1562.62	124.061
1563.53	122.307
1564.44	120.548
1565.35	119.15
1566.27	118.3
1567.18	117.698
1568.09	117.272
1569	116.877
1569.91	116.175
1570.82	115.268
1571.73	114.476
1572.64	113.911
1573.55	113.788
1574.46	113.596
1575.37	113.374
1576.28	113.262
1577.19	113.239
1578.1	113.308
1579	113.396
1579.91	113.585
1580.82	113.924
1581.73	114.206
1582.63	114.184
1583.54	113.692
1584.45	113.149
1585.35	112.633
1586.26	112.031
1587.17	111.231
1588.07	110.436
1588.98	109.698
1589.88	109.353
1590.79	109.221
1591.69	109.444
1592.6	110.078
1593.5	111.234
1594.4	112.366
1595.31	112.884
1596.21	112.911
1597.11	113.154
1598.02	113.401
1598.92	113.873
1599.82	114.369
1600.72	114.851
1601.63	115.398
1602.53	115.833
1603.43	116.513
1604.33	117.521
1605.23	117.979
1606.13	118.125
1607.03	117.968
1607.93	117.614
1608.83	117.109
1609.73	116.577
1610.63	116.411
1611.53	116.18
1612.43	115.872
1613.32	115.073
1614.22	113.956
1615.12	113.107
1616.02	112.449
1616.92	111.537
1617.81	110.96
1618.71	111.177
1619.61	111.25
1620.5	110.982
1621.4	110.484
1622.29	110.247
1623.19	110.472
1624.08	110.706
1624.98	110.873
1625.87	110.985
1626.77	110.959
1627.66	110.955
1628.56	111.093
1629.45	111.247
1630.34	111.318
1631.24	111.479
1632.13	111.534
1632.84	111.707
1633.77	111.202
1634.7	110.785
1635.63	110.381
1636.56	109.994
1637.49	109.383
1638.42	108.755
1639.34	108.189
1640.27	108.165
1641.2	107.531
1642.13	107.097
1643.05	107.447
1643.98	107.556
1644.91	107.851
1645.83	107.83
1646.76	107.913
1647.68	108.258
1648.61	108.327
1649.54	108.306
1650.46	108.271
1651.39	107.806
1652.31	107.159
1653.23	106.258
1654.16	105.73
1655.08	105.107
1656.01	104.545
1656.93	104.306
1657.85	104.433
1658.78	104.646
1659.7	104.822
1660.62	105.537
1661.54	106.125
1662.47	106.593
1663.39	107.501
1664.31	108.147
1665.23	108.463
1666.15	108.118
1667.07	107.605
1667.99	106.624
1668.92	105.926
1669.84	104.941
1670.76	104.422
1671.68	104.183
1672.6	103.914
1673.52	103.166
1674.43	102.878
1675.35	102.609
1676.27	102.403
1677.19	102.202
1678.11	101.389
1679.03	100.942
1679.95	100.927
1680.86	101.041
1681.78	100.743
1682.7	100.55
1683.61	100.616
1684.53	100.622
1685.45	100.761
1686.36	101.155
1687.28	101.523
1688.2	102.024
1689.11	102.38
1690.03	101.381
1690.94	100.326
1691.86	98.612
1692.77	96.8781
1693.69	95.382
1694.6	94.8151
1695.52	94.763
1696.43	94.4099
1697.34	94.1353
1698.26	93.9466
1699.17	93.6641
1700.08	93.4991
1700.99	93.7184
1701.91	94.2745
1702.82	94.2682
1703.73	94.0114
1704.64	93.9201
1705.55	93.9226
1706.47	94.5815
1707.38	94.6986
1708.29	93.7663
1709.2	92.6529
1710.11	92.1614
1711.02	91.572
1711.93	91.2882
1712.84	90.8873
1713.75	90.7459
1714.66	90.7273
1715.57	90.749
1716.48	91.167
1717.39	91.384
1718.29	91.4349
1719.2	91.8199
1720.11	91.6789
1721.02	91.61
1721.93	91.1915
1722.83	90.852
1723.74	90.5821
1724.65	90.225
1725.55	89.7784
1726.46	89.4773
1727.37	89.0666
1728.27	88.7101
1729.18	88.6933
1730.08	88.7658
1730.99	88.8054
1731.89	89.4915
1732.8	89.9149
1733.7	90.6849
1734.61	91.0945
1735.51	91.2367
1736.42	91.7299
1737.32	92.1724
1738.22	91.9343
1739.13	91.1246
1740.03	90.2001
1740.93	89.2837
1741.83	88.8915
1742.74	88.7653
1743.64	88.7899
1744.54	88.9019
1745.44	87.7365
1746.34	86.7814
1747.24	85.7769
1748.15	85.2583
1749.05	85.1876
1749.95	85.0928
1750.85	85.2701
1751.75	85.8671
1752.65	85.8347
1753.55	85.7768
1754.45	86.0237
1755.35	86.365
1756.25	86.2444
1757.14	85.5801
1758.04	85.4493
1758.94	84.7824
1759.84	84.6443
1760.74	84.2017
1761.63	84.0105
1762.53	83.6097
1763.43	83.9069
1764.33	84.5889
1765.22	85.3148
1766.12	85.1054
1767.02	84.3952
1767.91	83.7318
1768.81	83.2234
1769.7	82.8359
1770.6	81.9754
1771.49	81.0213
1772.39	80.5847
1773.28	80.5515
1774.18	80.5767
1775.07	81.2656
1775.97	81.9757
1776.86	83.0447
1777.75	84.1053
1778.65	84.9487
1779.54	85.5903
1780.43	85.7193
1781.33	85.6826
1782.22	85.7012
1783.11	85.9555
1784	85.768
1784.89	85.1329
1785.79	84.6187
1786.68	83.8149
1787.57	82.9224
1788.46	81.7298
1789.35	80.6261
1790.24	79.8372
1791.13	79.1467
1792.02	78.8875
1792.91	78.91
1793.8	78.8225
1794.69	78.9465
1795.58	79.0498
1796.47	78.909
1797.36	78.9906
1798.25	78.5603
1799.13	77.887
