Acq. time (s)=	15
Accumulations=	2
Range (cm-¹)=	600...1800
Windows=	2
Autofocus=	Off
AutoExposure=	Off
Spike filter=	Multiple accum.
Delay time (s)=	1
Binning=	1
Readout mode=	Signal
DeNoise=	Standard
ICS correction=	Off
Dark correction=	Off
Inst. Process=	Off
Instrument=	XploRA
Detector=	Syncerity
Objective=	x20LWD
Grating=	1200 gr/mm
Filter=	25%
Laser (nm)=	785 
Slit (µm)=	100 
Hole (µm)=	300 
Laser pol=	None
Raman pol=	None
Output=	Camera
StageXY=	Marzhauser
StageZ=	
X (µm)=	-7122.8
Y (µm)=	1427.6
Project=	
Sample=	
Site=	
Title=	To8
Remark=	
Date=	28.10.2022 21:19
Acquired=	28.10.2022 21:19:24
600.839	1534.92
602.009	1547.95
603.178	1560.43
604.347	1572.36
605.516	1583.85
606.684	1594.79
607.852	1605.14
609.02	1614.76
610.187	1623.78
611.355	1632.28
612.521	1640.12
613.688	1647.77
614.854	1655.22
616.02	1662.81
617.185	1670.41
618.351	1678.64
619.516	1687.16
620.681	1695.58
621.846	1704.66
623.009	1713.96
624.174	1723.26
625.337	1732.46
626.501	1741.37
627.664	1749.5
628.826	1756.74
629.988	1763.08
631.151	1768.07
632.313	1771.79
633.474	1774.35
634.635	1775.39
635.797	1775.92
636.958	1776.04
638.117	1775.92
639.278	1775.81
640.437	1776.16
641.597	1776.51
642.756	1776.71
643.915	1777.41
645.074	1778.4
646.233	1779.88
647.391	1780.71
648.548	1781.38
649.706	1783.56
650.863	1788.04
652.02	1792.86
653.176	1798.03
654.333	1803.19
655.489	1808.33
656.645	1813.68
657.8	1819.37
658.955	1825.09
660.11	1830.42
661.264	1834.85
662.419	1836.26
663.573	1835.97
664.727	1834.04
665.88	1834.1
667.033	1820.65
668.186	1840.95
669.338	1862.54
670.491	1896.5
671.643	1903.9
672.794	1895.97
673.945	1891.96
675.096	1886.97
676.247	1878.06
677.398	1881.15
678.548	1882.16
679.698	1884.55
680.847	1883.58
681.997	1903.69
683.146	1907.74
684.294	1911.23
685.443	1913.88
686.591	1915.61
687.739	1916.18
688.887	1916.01
690.034	1915.07
691.181	1913.41
692.328	1911.55
693.474	1908.32
694.62	1904.29
695.766	1899.78
696.911	1895.03
698.057	1890.08
699.202	1885.26
700.346	1881.57
701.49	1877.17
702.635	1872.93
703.779	1869.79
704.922	1867.72
706.065	1866.91
707.208	1867.01
708.351	1867.32
709.493	1868.17
710.635	1868.9
711.776	1869.58
712.918	1871.04
714.059	1872.32
715.2	1873
716.341	1872.91
717.481	1870.89
718.621	1866.22
719.761	1860.48
720.9	1855.03
722.04	1851.22
723.178	1848.06
724.317	1846.19
725.455	1845.9
726.594	1846.82
727.731	1849.35
728.868	1852.83
730.005	1857.51
731.142	1863.08
732.279	1869.81
733.415	1877.33
734.551	1885.62
735.686	1893.75
736.822	1902.74
737.957	1910.61
739.092	1914.88
740.226	1916.13
741.36	1914.23
742.495	1909.7
743.628	1902.55
744.762	1892.5
745.895	1880.96
747.027	1874.7
748.16	1865.94
749.292	1856.57
750.423	1846.07
751.555	1835.54
752.686	1824.4
753.817	1813.7
754.949	1804.12
756.079	1797.24
757.209	1787.01
758.339	1776.7
759.469	1766.28
760.597	1755.62
761.727	1745.18
762.856	1735.64
763.984	1727.77
765.112	1721.18
766.24	1716.35
767.367	1712.33
768.494	1709.09
769.622	1706.58
770.749	1704.64
771.874	1702.97
773.001	1701.52
774.127	1701.04
775.253	1700.6
776.377	1699.58
777.503	1698.16
778.627	1694.68
779.751	1689.8
780.876	1685.2
782	1680.09
783.123	1675.67
784.246	1670.89
785.37	1666.45
786.492	1661.61
787.614	1656.44
788.737	1649.68
789.858	1641.49
790.979	1633.78
792.101	1625.71
793.222	1618.46
794.342	1612.55
795.463	1606.7
796.583	1601.03
797.702	1595.45
798.822	1588.99
799.942	1581.72
801.06	1575.39
802.179	1569.6
803.297	1565.13
804.415	1564.51
805.533	1564.84
806.651	1565.85
807.768	1567.34
808.885	1568.1
810.001	1568.93
811.118	1570.25
812.233	1571.6
813.349	1572.86
814.464	1573.4
815.58	1573.59
816.695	1572.65
817.809	1570.63
818.924	1568.16
820.038	1565.51
821.152	1562.63
822.265	1559.59
823.378	1556.87
824.491	1555.04
825.604	1554.12
826.716	1552.73
827.828	1550.54
828.94	1548.04
830.051	1544.01
831.162	1540.4
832.273	1537.71
833.383	1535.86
834.494	1533.95
835.604	1532.65
836.714	1531.5
837.823	1530.21
838.932	1528.89
840.041	1527.46
841.15	1526.03
842.258	1524.26
843.366	1522.4
844.474	1520.48
845.581	1518.63
846.688	1515.4
847.795	1511.86
848.901	1507.68
850.008	1503.8
851.115	1500.52
852.22	1499.39
853.325	1499.34
854.43	1500.24
855.536	1501.07
856.64	1501.51
857.745	1500.32
858.848	1498.1
859.952	1494.98
861.055	1490.45
862.158	1484.22
863.261	1476.69
864.364	1468.25
865.466	1458.81
866.568	1448.82
867.67	1439.74
868.771	1430.86
869.873	1422.1
870.973	1415.58
872.074	1409.94
873.174	1405.2
874.274	1401.05
875.374	1397.57
876.473	1394.81
877.572	1392.3
878.671	1390.39
879.77	1388.29
880.868	1387.08
881.966	1386.42
883.064	1386.2
884.161	1386.42
885.258	1387.24
886.356	1389.03
887.452	1391.23
888.548	1393.52
889.645	1395.88
890.74	1397.8
891.836	1398.89
892.931	1398.24
894.025	1397.28
895.12	1395.86
896.214	1394.27
897.308	1392.58
898.402	1391.05
899.495	1389.15
900.588	1387.21
901.681	1385.56
902.774	1384.45
903.866	1384.37
904.958	1385.02
906.05	1387.43
907.142	1390.88
908.233	1394.85
909.324	1399.43
910.414	1403.46
911.504	1406.18
912.594	1405.7
913.684	1402.77
914.774	1397.59
915.863	1391.01
916.952	1383.27
918.041	1374.34
919.129	1364.37
920.217	1353.78
921.305	1343.2
922.392	1333.03
923.48	1324.19
924.567	1315.19
925.653	1306.79
926.74	1299.47
927.825	1294.2
928.911	1290.44
929.997	1287.43
931.082	1284.59
932.166	1281.97
933.252	1277.89
934.336	1274.18
935.42	1270.9
936.504	1268.69
937.587	1268.04
938.671	1268.31
939.753	1269.54
940.836	1270.92
941.919	1271.26
943	1266.71
944.082	1260.28
945.163	1256.82
946.245	1248.16
947.326	1243.36
948.406	1240.43
949.487	1241.53
950.567	1243.76
951.647	1246.26
952.727	1247.42
953.805	1246.85
954.885	1245.81
955.964	1243.9
957.042	1241.71
958.12	1239.32
959.198	1236.69
960.276	1234.2
961.352	1231.61
962.43	1229.19
963.507	1227.1
964.583	1225.15
965.659	1223.49
966.735	1222.11
967.81	1221.1
968.885	1220.59
969.961	1220.51
971.036	1221.04
972.11	1222.24
973.184	1223.87
974.258	1226.45
975.332	1229.58
976.405	1233.54
977.478	1237.92
978.551	1242.66
979.624	1247.69
980.696	1252.85
981.767	1257.49
982.839	1260.92
983.911	1263.41
984.982	1262.57
986.052	1260.34
987.123	1257.29
988.193	1253.68
989.263	1249.91
990.333	1246.75
991.403	1243.41
992.471	1239.92
993.54	1236.54
994.608	1233.34
995.677	1230.33
996.745	1227.38
997.812	1224.53
998.88	1221.56
999.947	1218.55
1001.01	1215.6
1002.08	1212.15
1003.15	1208.26
1004.21	1203.58
1005.28	1196.44
1006.34	1187.96
1007.41	1179.44
1008.47	1170.95
1009.54	1162.87
1010.6	1155.25
1011.67	1148.21
1012.73	1141.94
1013.79	1136.51
1014.86	1131.77
1015.92	1128.22
1016.98	1125.56
1018.05	1123.87
1019.11	1122.93
1020.17	1122.94
1021.23	1123.23
1022.29	1123.13
1023.35	1122.34
1024.41	1120.91
1025.47	1118.49
1026.53	1114.77
1027.59	1110.32
1028.65	1105.65
1029.71	1100.71
1030.77	1096
1031.83	1091.2
1032.89	1087.22
1033.95	1083.58
1035	1079.97
1036.06	1076.68
1037.12	1073.86
1038.18	1071.55
1039.23	1071.02
1040.29	1071.83
1041.35	1072.62
1042.4	1073.31
1043.46	1073.26
1044.51	1072.52
1045.57	1071.37
1046.62	1070.06
1047.68	1068.62
1048.73	1067.08
1049.79	1065.47
1050.84	1063.88
1051.89	1062.44
1052.95	1060.7
1054	1058.7
1055.05	1056.56
1056.1	1054.35
1057.16	1051.96
1058.21	1050.3
1059.26	1049.08
1060.31	1048.48
1061.36	1047.43
1062.41	1046.07
1063.46	1044.38
1064.51	1041.94
1065.56	1039.25
1066.61	1036.3
1067.66	1033.14
1068.71	1029.85
1069.76	1026.3
1070.81	1022.46
1071.85	1018.44
1072.9	1014.1
1073.95	1009.64
1075	1005.06
1076.04	1000.49
1077.09	996.141
1078.14	991.976
1079.18	988.912
1080.23	986.265
1081.27	984.528
1082.32	983.333
1083.36	982.537
1084.41	982.057
1085.45	981.733
1086.5	981.463
1087.54	980.995
1088.59	981.189
1089.63	981.45
1090.67	981.793
1091.71	982.217
1092.76	982.692
1093.8	983.222
1094.84	983.722
1095.88	983.864
1096.92	983.283
1097.97	983.083
1099.01	982.532
1100.05	982.64
1101.09	982.798
1102.13	983.066
1103.17	983.057
1104.21	982.414
1105.25	981.51
1106.28	979.772
1107.32	977.43
1108.36	974.341
1109.4	971.114
1110.44	967.621
1111.47	963.828
1112.51	960.181
1113.55	956.956
1114.59	954.243
1115.62	951.283
1116.66	947.933
1117.69	943.34
1118.73	937.78
1119.77	934.033
1120.8	932.229
1121.84	932.282
1122.87	934.03
1123.9	939.19
1124.94	945.693
1125.97	949.365
1127	951.885
1128.04	943.058
1129.07	947.776
1130.1	952.12
1131.13	955
1132.17	959.233
1133.2	966.136
1134.23	973.717
1135.26	981.256
1136.29	989.349
1137.32	995.53
1138.35	1003.27
1139.38	1007.27
1140.41	1009.09
1141.44	1007.81
1142.47	1002.59
1143.5	993.393
1144.53	992.965
1145.56	996.29
1146.59	1001.86
1147.61	1009.34
1148.64	1015.96
1149.67	1027.74
1150.7	1036.74
1151.72	1043.71
1152.75	1047.7
1153.77	1048.53
1154.8	1046.45
1155.83	1040.85
1156.85	1032.45
1157.88	1014.78
1158.9	1001.03
1159.93	983.984
1160.95	965.731
1161.97	949.428
1163	934.968
1164.02	922.653
1165.04	912.649
1166.07	904.948
1167.09	900.112
1168.11	904.262
1169.13	905.03
1170.16	907.901
1171.18	910.834
1172.2	914.503
1173.22	918.812
1174.24	923.369
1175.26	928.328
1176.28	933.345
1177.3	937.995
1178.32	942.192
1179.34	945.372
1180.36	948.074
1181.38	949.7
1182.4	950.111
1183.41	949.252
1184.43	947.311
1185.45	943.595
1186.47	937.631
1187.48	930.445
1188.5	921.916
1189.52	912.383
1190.53	902.532
1191.55	893.759
1192.56	885.509
1193.58	877.883
1194.59	870.605
1195.61	863.884
1196.62	857.212
1197.64	851.934
1198.65	849.709
1199.67	848.839
1200.68	852.283
1201.69	857.813
1202.71	857.077
1203.72	855.632
1204.73	852.06
1205.74	847.529
1206.76	843.169
1207.77	839.444
1208.78	852.476
1209.79	865.573
1210.8	871.776
1211.81	876.075
1212.82	863.133
1213.83	860.826
1214.84	860.656
1215.85	860.93
1216.86	871.568
1217.87	873.987
1218.88	877.932
1219.88	875.427
1220.89	874.764
1221.9	874.143
1222.91	873.548
1223.92	867.063
1224.92	862.476
1225.93	857.476
1226.93	852.035
1227.94	845.741
1228.95	839.139
1229.95	831.838
1230.96	823.648
1231.96	815.375
1232.97	807.222
1233.97	799.243
1234.98	792.014
1235.98	785.482
1236.98	779.253
1237.99	773.416
1238.99	768.037
1239.99	763.253
1241	759.045
1242	755.473
1243	752.606
1244	750.55
1245	749.083
1246	748.716
1247.01	748.99
1248.01	749.458
1249.01	750.247
1250.01	750.358
1251.01	750.935
1252.01	751.775
1253	752.867
1254	754.449
1255	756.182
1256	757.934
1257	759.302
1258	759.663
1258.99	759.558
1259.99	758.755
1260.99	756.755
1261.99	753.132
1262.98	748.404
1263.98	743.433
1264.98	738.667
1265.97	733.667
1266.97	728.983
1267.96	724.334
1268.96	720.367
1269.95	717.277
1270.95	715.829
1271.94	715.57
1272.93	716.579
1273.93	718.707
1274.92	721.547
1275.91	724.901
1276.91	728.835
1277.9	733.195
1278.89	737.388
1279.88	741.295
1280.87	744.721
1281.87	747.163
1282.86	749.662
1283.85	751.152
1284.84	750.763
1285.83	748.106
1286.82	744.643
1287.81	740.029
1288.8	734.928
1289.79	729.102
1290.78	722.064
1291.76	714.366
1292.75	707.706
1293.74	702.431
1294.73	698.382
1295.72	695.442
1296.7	693.785
1297.69	693.466
1298.68	694.291
1299.66	696.411
1300.65	699.352
1301.64	702.919
1302.62	706.206
1303.61	708.218
1304.59	708.762
1305.58	708.215
1306.56	706.498
1307.55	703.381
1308.53	699.665
1309.51	695.655
1310.5	692.302
1311.48	689.27
1312.46	686.669
1313.45	684.826
1314.43	683.814
1315.41	683.548
1316.39	683.843
1317.38	684.321
1318.36	685.541
1319.34	696.969
1320.32	711.634
1321.3	730.383
1322.28	746.45
1323.26	761.652
1324.24	774.652
1325.22	786.448
1326.2	791.795
1327.18	768.73
1328.16	751.752
1329.13	733.517
1330.11	713.267
1331.09	699.003
1332.07	684.055
1333.04	675.496
1334.02	663.756
1335	663.884
1335.97	663.338
1336.95	667.713
1337.93	666.486
1338.9	662.207
1339.88	658.977
1340.85	657.197
1341.83	653.927
1342.8	650.189
1343.78	647.72
1344.75	645.517
1345.72	643.291
1346.7	641.005
1347.67	638.639
1348.65	636.563
1349.62	634.784
1350.59	633.443
1351.56	632.591
1352.53	632.418
1353.51	632.343
1354.48	632.068
1355.45	630.96
1356.42	629.068
1357.39	626.784
1358.36	623.924
1359.33	620.616
1360.3	616.919
1361.27	613.089
1362.24	609.682
1363.21	606.885
1364.18	604.734
1365.14	603.071
1366.11	601.275
1367.08	599.731
1368.05	600.069
1369.02	600.918
1369.98	602.026
1370.95	603.311
1371.92	605.03
1372.88	605.984
1373.85	606.574
1374.81	607.133
1375.78	607.627
1376.74	607.931
1377.71	607.989
1378.68	607.843
1379.64	607.453
1380.6	606.801
1381.57	605.916
1382.53	604.865
1383.49	603.482
1384.46	601.862
1385.42	599.966
1386.38	597.778
1387.34	595.465
1388.31	592.885
1389.27	590.196
1390.23	587.518
1391.19	586.063
1392.15	584.801
1393.11	583.655
1394.07	582.536
1395.03	581.307
1395.99	579.501
1396.95	577.421
1397.91	575.505
1398.87	573.528
1399.83	571.9
1400.79	570.304
1401.75	568.629
1402.7	566.816
1403.66	564.711
1404.62	561.76
1405.58	558.29
1406.53	556.707
1407.49	555.686
1408.45	555.133
1409.4	554.845
1410.36	554.577
1411.31	554.484
1412.27	554.382
1413.23	554.701
1414.18	554.876
1415.13	554.696
1416.09	553.873
1417.04	553.116
1418	552.517
1418.95	552.269
1419.9	552.646
1420.86	553.53
1421.81	554.808
1422.76	556.444
1423.71	558.507
1424.67	561.243
1425.62	564.063
1426.57	566.396
1427.52	568.089
1428.47	569.44
1429.42	570.493
1430.37	571.224
1431.32	571.653
1432.27	571.919
1433.22	571.762
1434.17	571.449
1435.12	570.842
1436.07	569.672
1437.02	568.331
1437.96	566.817
1438.91	565.154
1439.86	563.495
1440.81	561.722
1441.75	560.513
1442.7	559.559
1443.65	558.57
1444.59	557.43
1445.54	556.017
1446.49	554.498
1447.43	552.229
1448.38	550.059
1449.32	547.615
1450.27	546.128
1451.21	542.582
1452.15	542.319
1453.1	538.233
1454.04	533.297
1454.98	527.853
1455.93	522.62
1456.87	517.964
1457.81	513.976
1458.76	511.002
1459.7	508.985
1460.64	508.329
1461.58	508.592
1462.52	510.124
1463.46	512.567
1464.4	515.513
1465.34	517.795
1466.28	516.841
1467.22	516.143
1468.16	515.434
1469.1	514.367
1470.04	512.426
1470.98	511.059
1471.92	508.243
1472.86	505.238
1473.8	503.116
1474.73	501.446
1475.67	500.285
1476.61	499.641
1477.55	499.377
1478.48	499.704
1479.42	500.912
1480.36	502.56
1481.29	504.499
1482.23	506.481
1483.16	507.424
1484.1	508.317
1485.03	508.665
1485.97	508.677
1486.9	508.322
1487.84	508.675
1488.77	508.629
1489.7	508.137
1490.64	506.742
1491.57	505.014
1492.5	502.958
1493.44	500.72
1494.37	497.536
1495.3	494.477
1496.23	491.594
1497.16	489.393
1498.09	487.869
1499.02	486.838
1499.96	486.046
1500.89	485.853
1501.82	486.18
1502.75	487.202
1503.68	488.278
1504.61	490.45
1505.53	493.502
1506.46	497.413
1507.39	502.789
1508.32	508.531
1509.25	514.877
1510.18	521.607
1511.1	527.986
1512.03	534.506
1512.96	542.711
1513.88	553.077
1514.81	564.237
1515.74	576.126
1516.66	588.309
1517.59	600.502
1518.51	612.307
1519.44	625.009
1520.36	636.199
1521.29	644.519
1522.21	650.662
1523.14	654.687
1524.06	656.249
1524.98	655.397
1525.91	652.394
1526.83	647.169
1527.75	639.858
1528.68	630.783
1529.6	622.341
1530.52	612.567
1531.44	601.956
1532.36	591.074
1533.29	580.312
1534.21	569.572
1535.13	559.221
1536.05	549.166
1536.97	539.766
1537.89	529.119
1538.81	518.544
1539.73	508.997
1540.65	500.951
1541.56	495.354
1542.48	491.077
1543.4	488.572
1544.32	487.352
1545.24	487.173
1546.16	488.032
1547.07	488.851
1547.99	489.067
1548.91	488.536
1549.82	487.063
1550.74	484.81
1551.66	482.149
1552.57	478.498
1553.49	473.7
1554.4	465.127
1555.32	458.91
1556.23	452.073
1557.15	444.99
1558.06	437.663
1558.97	430.983
1559.89	424.973
1560.8	420.719
1561.71	418.024
1562.63	415.42
1563.54	412.985
1564.45	411.111
1565.36	409.721
1566.28	408.579
1567.19	407.682
1568.1	406.951
1569.01	406.323
1569.92	406.051
1570.83	406.222
1571.74	406.707
1572.65	407.117
1573.56	407.385
1574.47	407.557
1575.38	407.718
1576.29	407.936
1577.2	408.141
1578.11	408.174
1579.01	407.453
1579.92	406.763
1580.83	406.31
1581.74	405.787
1582.64	405.192
1583.55	404.457
1584.46	403.587
1585.36	402.23
1586.27	401.078
1587.18	400.659
1588.08	400.097
1588.99	399.665
1589.89	399.517
1590.8	399.836
1591.7	400.327
1592.61	401.051
1593.51	401.765
1594.41	402.706
1595.32	403.706
1596.22	404.687
1597.12	405.768
1598.03	406.873
1598.93	407.953
1599.83	408.346
1600.73	408.398
1601.64	407.918
1602.54	406.986
1603.44	406.081
1604.34	405.36
1605.24	404.746
1606.14	404.08
1607.04	403.414
1607.94	402.519
1608.84	401.47
1609.74	400.348
1610.64	399.098
1611.54	397.751
1612.44	396.422
1613.33	394.95
1614.23	393.262
1615.13	391.333
1616.03	389.309
1616.92	387.2
1617.82	384.897
1618.72	382.589
1619.61	380.534
1620.51	378.712
1621.41	377.44
1622.3	376.898
1623.2	376.88
1624.09	377.209
1624.99	377.865
1625.88	378.808
1626.78	379.893
1627.67	381.2
1628.57	382.829
1629.46	384.297
1630.35	385.559
1631.25	386.681
1632.14	385.611
1632.85	383.992
1633.78	380.819
1634.71	377.54
1635.64	373.773
1636.57	369.562
1637.5	364.644
1638.42	363.159
1639.35	362.348
1640.28	361.994
1641.21	362.336
1642.13	363.016
1643.06	366.775
1643.99	369.027
1644.91	370.341
1645.84	370.987
1646.77	370.15
1647.69	366.126
1648.62	366.312
1649.54	367.182
1650.47	368.311
1651.39	369.792
1652.32	371.215
1653.24	372.731
1654.17	373.959
1655.09	374.969
1656.01	375.682
1656.94	375.828
1657.86	375.104
1658.78	370.021
1659.71	368.921
1660.63	367.7
1661.55	366.485
1662.47	365.289
1663.4	364.195
1664.32	363.244
1665.24	362.479
1666.16	361.864
1667.08	361.599
1668	361.792
1668.92	362.191
1669.84	362.679
1670.76	362.709
1671.68	362.076
1672.6	361.284
1673.52	360.367
1674.44	359.358
1675.36	358.303
1676.28	357.108
1677.2	356.168
1678.12	354.856
1679.03	353.413
1679.95	351.906
1680.87	350.274
1681.79	349.038
1682.7	347.872
1683.62	347.264
1684.54	346.432
1685.45	346.043
1686.37	345.046
1687.29	344.044
1688.2	342.86
1689.12	341.723
1690.03	340.675
1690.95	339.642
1691.86	338.663
1692.78	337.783
1693.69	336.93
1694.61	336.233
1695.52	335.81
1696.43	335.273
1697.35	334.784
1698.26	334.543
1699.17	334.454
1700.09	334.467
1701	334.67
1701.91	335.089
1702.82	335.698
1703.74	334.733
1704.65	332.666
1705.56	330.436
1706.47	328.416
1707.38	326.509
1708.29	324.408
1709.2	321.938
1710.11	319.851
1711.02	318.546
1711.93	317.789
1712.84	317.774
1713.75	318.427
1714.66	319.67
1715.57	321.672
1716.48	323.678
1717.39	325.462
1718.3	326.447
1719.21	326.733
1720.11	326.304
1721.02	325.344
1721.93	323.702
1722.84	321.43
1723.74	318.532
1724.65	315.528
1725.56	313.386
1726.46	311.678
1727.37	310.313
1728.28	309.392
1729.18	308.615
1730.09	308.684
1730.99	309.174
1731.9	309.799
1732.8	310.13
1733.71	310.376
1734.61	310.478
1735.52	310.259
1736.42	309.942
1737.32	309.471
1738.23	308.448
1739.13	307.312
1740.03	306.184
1740.94	305.12
1741.84	304.509
1742.74	304.733
1743.64	305.255
1744.54	305.921
1745.45	306.793
1746.35	307.76
1747.25	308.439
1748.15	309.28
1749.05	310.312
1749.95	311.221
1750.85	312.465
1751.75	313.814
1752.65	315.186
1753.55	316.339
1754.45	317.173
1755.35	317.209
1756.25	316.533
1757.15	315.255
1758.05	313.374
1758.94	310.838
1759.84	307.726
1760.74	304.194
1761.64	300.279
1762.53	296.333
1763.43	293.042
1764.33	290.256
1765.23	288.269
1766.12	287.018
1767.02	286.325
1767.91	286.108
1768.81	286.4
1769.71	286.884
1770.6	287.777
1771.5	288.942
1772.39	289.995
1773.29	289.837
1774.18	289.504
1775.07	289.067
1775.97	288.542
1776.86	287.983
1777.76	287.661
1778.65	287.24
1779.54	286.947
1780.44	286.562
1781.33	286.373
1782.22	286.136
1783.11	285.864
1784.01	285.571
1784.9	285.208
1785.79	284.673
1786.68	284.099
1787.57	283.359
1788.46	282.218
1789.35	280.905
1790.24	279.352
1791.13	277.769
1792.02	276.157
1792.91	274.495
1793.8	272.835
1794.69	271.124
1795.58	269.85
1796.47	268.774
1797.36	267.571
1798.25	266.382
1799.14	265.316
