Acq. time (s)=	15
Accumulations=	2
Range (cm-¹)=	600...1800
Windows=	2
Autofocus=	Off
AutoExposure=	On
Spike filter=	Multiple accum.
Delay time (s)=	1
Binning=	1
Readout mode=	Signal
DeNoise=	Standard
ICS correction=	Off
Dark correction=	Off
Inst. Process=	Off
Instrument=	XploRA
Detector=	Syncerity
Objective=	x20LWD
Grating=	1200 gr/mm
Filter=	25%
Laser (nm)=	785 
Slit (µm)=	100 
Hole (µm)=	300 
Laser pol=	None
Raman pol=	None
Output=	Camera
StageXY=	Marzhauser
StageZ=	
X (µm)=	-4270.3
Y (µm)=	-8807.8
Project=	
Sample=	
Site=	
Title=	To3-T
Remark=	
Date=	14.10.2022 19:36
Acquired=	14.10.2022 19:36:10
600.787	377.096
601.956	383.17
603.126	389.281
604.294	392.344
605.463	396.775
606.631	401.216
607.8	405.567
608.967	409.712
610.135	413.687
611.302	417.45
612.468	420.987
613.635	424.357
614.802	427.472
615.968	430.464
617.133	433.188
618.299	435.703
619.464	438.1
620.629	440.375
621.793	442.602
622.958	445.13
624.121	447.888
625.285	450.702
626.448	453.953
627.612	456.102
628.774	458.853
629.937	461.93
631.099	464.692
632.261	465.756
633.423	466.57
634.584	467.355
635.745	467.873
636.906	468.169
638.066	468.326
639.227	468.115
640.386	467.897
641.546	467.918
642.705	468.535
643.864	469.406
645.023	470.303
646.181	471.771
647.339	473.297
648.497	474.882
649.655	476.444
650.812	477.877
651.969	479.182
653.125	480.12
654.282	480.964
655.438	481.52
656.593	481.999
657.75	482.274
658.905	482.461
660.059	482.508
661.214	482.574
662.368	482.945
663.522	483.45
664.676	484.677
665.83	486.239
666.983	488.064
668.136	489.879
669.288	491.465
670.441	493.283
671.592	495.154
672.744	497.189
673.895	499.753
675.046	502.145
676.197	504.271
677.348	505.575
678.498	506.235
679.648	506.41
680.798	505.983
681.947	505.143
683.096	504.221
684.245	503.168
685.394	502.648
686.542	503.985
687.69	505.713
688.837	507.43
689.984	509.178
691.132	510.802
692.278	512.407
693.425	514.073
694.571	515.504
695.717	516.313
696.863	516.162
698.008	515.502
699.152	514.357
700.298	512.764
701.442	510.849
702.586	508.636
703.73	505.62
704.873	502.624
706.017	500.491
707.16	499.135
708.302	498.188
709.445	497.58
710.586	497.064
711.729	496.468
712.87	495.984
714.012	495.635
715.152	495.512
716.293	496.142
717.433	496.961
718.573	496.908
719.713	496.539
720.853	496.092
721.991	495.653
723.131	495.033
724.269	493.475
725.408	491.831
726.545	490.684
727.683	489.95
728.821	489.999
729.958	490.292
731.095	490.255
732.231	490.947
733.368	492.807
734.503	495.206
735.639	497.586
736.775	499.873
737.91	501.958
739.045	503.81
740.179	505.233
741.313	506.43
742.447	507.126
743.581	506.267
744.714	504.102
745.847	501.512
746.98	498.75
748.113	495.873
749.245	492.911
750.377	489.831
751.509	486.759
752.64	483.504
753.771	480.254
754.902	476.955
756.033	474.589
757.163	470.964
758.293	467.513
759.423	464.666
760.551	462.117
761.681	459.793
762.81	457.621
763.938	455.686
765.066	453.982
766.194	452.675
767.321	451.882
768.449	452.084
769.576	453.659
770.703	454.128
771.83	454.314
772.955	454.182
774.081	454.003
775.207	453.557
776.332	452.813
777.457	451.745
778.582	450.162
779.707	448.357
780.831	447.771
781.954	447.584
783.078	447.441
784.201	447.837
785.324	446.681
786.447	445.317
787.569	443.817
788.691	442.264
789.813	440.515
790.935	438.72
792.056	436.702
793.177	434.644
794.297	432.468
795.418	430.243
796.539	428.035
797.658	425.757
798.777	423.455
799.897	421.209
801.016	419.146
802.134	417.291
803.253	416.144
804.371	415.167
805.489	414.347
806.606	413.946
807.723	413.829
808.84	413.99
809.957	414.073
811.073	414.62
812.19	415.203
813.305	415.735
814.421	416.181
815.536	416.269
816.651	416.386
817.766	416.35
818.88	416.092
819.994	415.66
821.108	414.284
822.221	412.787
823.335	411.282
824.448	409.927
825.56	408.778
826.673	407.753
827.784	406.974
828.897	406.31
830.008	405.874
831.119	405.564
832.23	405.44
833.341	405.501
834.451	405.656
835.561	405.729
836.671	405.058
837.78	404.613
838.89	404.038
839.998	403.48
841.108	402.619
842.216	401.36
843.324	400.214
844.431	399.345
845.539	399.498
846.646	399.675
847.753	399.809
848.859	399.662
849.966	398.755
851.071	397.537
852.178	396.147
853.283	394.711
854.388	393.14
855.494	391.639
856.598	390.107
857.703	388.659
858.806	387.246
859.91	385.916
861.014	384.686
862.116	383.533
863.22	382.534
864.322	381.609
865.425	380.895
866.527	380.333
867.628	379.888
868.73	379.665
869.831	379.663
870.932	379.96
872.032	380.34
873.133	380.636
874.233	380.141
875.333	379.313
876.432	378.202
877.532	376.917
878.631	375.661
879.729	374.637
880.828	374.076
881.926	373.868
883.023	373.602
884.121	373.08
885.218	372.016
886.315	370.877
887.412	368.552
888.508	366.139
889.604	363.796
890.699	361.978
891.795	360.625
892.89	359.62
893.985	359.139
895.08	358.932
896.174	359.495
897.268	360.408
898.362	361.66
899.456	363.109
900.549	364.239
901.642	365.493
902.734	366.967
903.827	368.286
904.919	369.281
906.011	369.449
907.102	368.493
908.193	367.187
909.284	365.693
910.375	364.287
911.465	362.975
912.555	361.734
913.645	360.39
914.734	359.643
915.824	358.995
916.913	358.339
918.001	357.706
919.09	357.056
920.177	356.343
921.266	355.134
922.353	353.81
923.44	352.268
924.527	350.628
925.614	348.818
926.7	346.941
927.786	344.97
928.873	342.937
929.958	340.884
931.043	338.775
932.128	336.727
933.213	334.982
934.297	333.326
935.381	332.068
936.465	331.474
937.549	331.432
938.632	331.526
939.715	331.368
940.798	330.89
941.881	330.29
942.962	328.992
944.044	327.478
945.125	325.892
946.207	324.272
947.288	323.036
948.368	321.747
949.449	320.431
950.529	319.261
951.61	319.256
952.689	319.186
953.769	318.716
954.847	318.06
955.926	317.302
957.004	316.185
958.082	315.283
959.16	315.653
960.238	316.15
961.316	316.679
962.392	317.179
963.469	317.574
964.546	317.954
965.622	318.227
966.698	318.478
967.774	318.689
968.849	318.827
969.924	319.06
970.998	319.213
972.073	319.326
973.148	319.286
974.221	318.331
975.295	317.229
976.369	317.41
977.441	317.672
978.514	317.943
979.587	318.188
980.659	318.357
981.731	318.511
982.802	318.579
983.874	318.635
984.945	318.62
986.016	318.585
987.087	318.504
988.157	318.301
989.227	318.204
990.296	318.041
991.366	317.863
992.435	317.555
993.504	317.42
994.573	317.261
995.641	317.056
996.709	316.792
997.777	316.496
998.844	316.127
999.911	315.682
1000.98	315.172
1002.05	314.568
1003.11	313.859
1004.18	312.79
1005.24	311.758
1006.31	310.625
1007.37	309.442
1008.44	307.954
1009.5	306.433
1010.57	304.642
1011.63	302.81
1012.7	300.864
1013.76	298.863
1014.82	296.761
1015.89	294.596
1016.95	292.378
1018.01	290.082
1019.07	287.787
1020.13	285.635
1021.2	283.479
1022.26	281.555
1023.32	279.707
1024.38	277.987
1025.44	277.061
1026.5	276.676
1027.56	276.492
1028.62	276.284
1029.68	275.674
1030.74	274.797
1031.8	273.63
1032.85	272.646
1033.91	272.069
1034.97	272.564
1036.03	273.587
1037.09	275.12
1038.14	276.96
1039.2	278.819
1040.26	280.763
1041.31	282.676
1042.37	284.448
1043.42	286.142
1044.48	287.675
1045.53	288.863
1046.59	289.392
1047.64	290.464
1048.7	289.83
1049.75	288.425
1050.81	286.174
1051.86	283.285
1052.91	279.946
1053.97	276.145
1055.02	272.952
1056.07	270.677
1057.12	269.124
1058.17	268.142
1059.23	267.736
1060.28	267.742
1061.33	267.968
1062.38	268.593
1063.43	272.116
1064.48	273.045
1065.53	273.911
1066.58	275.164
1067.63	276.172
1068.68	276.793
1069.72	276.785
1070.77	275.8
1071.82	274.607
1072.87	273.771
1073.92	272.919
1074.96	270.997
1076.01	268.912
1077.06	266.906
1078.1	264.885
1079.15	263.122
1080.2	261.775
1081.24	260.638
1082.29	259.59
1083.33	258.7
1084.38	257.91
1085.42	257.211
1086.47	256.598
1087.51	255.804
1088.55	255.134
1089.6	254.138
1090.64	253.408
1091.68	252.695
1092.73	252.092
1093.77	251.603
1094.81	251.311
1095.85	251.109
1096.89	251.119
1097.93	251.555
1098.98	252.096
1100.02	252.836
1101.06	253.572
1102.1	254.049
1103.14	254.128
1104.18	253.85
1105.21	253.12
1106.25	251.958
1107.29	250.41
1108.33	248.317
1109.37	247.994
1110.41	247.753
1111.44	247.415
1112.48	246.928
1113.52	246.245
1114.56	245.397
1115.59	244.346
1116.63	243.12
1117.66	241.887
1118.7	240.063
1119.73	238.075
1120.77	236.198
1121.8	234.459
1122.84	233.463
1123.87	232.701
1124.91	232.38
1125.94	232.435
1126.97	232.934
1128.01	233.815
1129.04	235.222
1130.07	237.006
1131.11	239.28
1132.14	241.93
1133.17	244.772
1134.2	247.346
1135.23	249.604
1136.26	251.889
1137.29	253.976
1138.32	255.917
1139.35	257.602
1140.38	258.931
1141.41	259.763
1142.44	259.833
1143.47	259.448
1144.5	258.896
1145.53	258.682
1146.56	259.02
1147.58	259.37
1148.61	259.818
1149.64	260.186
1150.67	260.669
1151.69	261.206
1152.72	262.42
1153.75	263.5
1154.77	264.305
1155.8	264.431
1156.82	264.19
1157.85	263.52
1158.87	262.396
1159.9	260.849
1160.92	258.954
1161.95	256.15
1162.97	253.174
1163.99	250.125
1165.02	247.7
1166.04	245.365
1167.06	243.323
1168.08	241.453
1169.11	239.877
1170.13	238.56
1171.15	237.576
1172.17	237
1173.19	236.817
1174.21	237.188
1175.23	237.824
1176.25	238.833
1177.27	239.966
1178.29	241.505
1179.31	243.118
1180.33	244.552
1181.35	245.69
1182.37	246.503
1183.39	246.937
1184.4	247.003
1185.42	246.721
1186.44	246.045
1187.46	245.013
1188.47	243.59
1189.49	241.797
1190.51	239.624
1191.52	237.064
1192.54	234.034
1193.55	230.788
1194.57	227.505
1195.58	225.112
1196.6	222.775
1197.61	221.157
1198.63	220.045
1199.64	219.223
1200.65	218.722
1201.67	218.438
1202.68	218.39
1203.69	218.317
1204.7	218.476
1205.72	218.76
1206.73	219.086
1207.74	219.348
1208.75	219.623
1209.76	219.734
1210.77	219.439
1211.78	219.012
1212.79	218.391
1213.8	217.616
1214.81	216.926
1215.82	216.631
1216.83	216.989
1217.84	217.687
1218.85	218.717
1219.86	219.768
1220.87	220.326
1221.87	220.006
1222.88	217.101
1223.89	217.031
1224.9	216.935
1225.9	216.801
1226.91	216.542
1227.92	216.39
1228.92	216.07
1229.93	215.516
1230.93	214.723
1231.94	213.238
1232.94	211.561
1233.95	209.738
1234.95	207.473
1235.95	203.327
1236.96	201.485
1237.96	199.832
1238.96	198.352
1239.97	197.038
1240.97	195.883
1241.97	194.902
1242.97	194.065
1243.98	193.312
1244.98	192.877
1245.98	192.602
1246.98	192.425
1247.98	192.321
1248.98	192.311
1249.98	192.322
1250.98	192.366
1251.98	192.44
1252.98	192.376
1253.98	192.335
1254.98	192.266
1255.98	192.181
1256.97	192.083
1257.97	191.964
1258.97	191.851
1259.97	191.737
1260.97	191.601
1261.96	191.493
1262.96	191.467
1263.95	193.018
1264.95	194.278
1265.95	195.022
1266.94	195.309
1267.94	194.887
1268.93	194.044
1269.93	192.836
1270.92	191.402
1271.92	189.957
1272.91	188.484
1273.9	186.962
1274.9	185.405
1275.89	183.974
1276.88	182.657
1277.87	180.384
1278.87	180.648
1279.86	181.74
1280.85	183.686
1281.84	185.704
1282.83	187.595
1283.82	189.185
1284.81	190.687
1285.81	192.31
1286.8	193.911
1287.79	194.596
1288.77	194.565
1289.76	193.51
1290.75	189.356
1291.74	185.585
1292.73	181.977
1293.72	178.612
1294.71	175.514
1295.69	172.746
1296.68	170.374
1297.67	170.587
1298.65	173.428
1299.64	178.967
1300.63	173.597
1301.61	172.767
1302.6	174.138
1303.58	172.028
1304.57	170.507
1305.55	173.205
1306.54	174.964
1307.52	175.619
1308.51	175.336
1309.49	174.327
1310.48	173.684
1311.46	173.217
1312.44	172.939
1313.42	172.863
1314.41	172.892
1315.39	172.986
1316.37	173.128
1317.35	173.288
1318.33	172.944
1319.32	173.32
1320.3	174.518
1321.28	176.554
1322.26	179.476
1323.24	183.384
1324.22	188.326
1325.2	194.275
1326.18	201.102
1327.15	201.759
1328.13	200.626
1329.11	197.85
1330.09	193.548
1331.07	187.228
1332.05	182.512
1333.02	178.616
1334	175.449
1334.98	172.59
1335.95	170.809
1336.93	169.583
1337.91	168.544
1338.88	167.67
1339.86	166.873
1340.83	166.16
1341.81	165.523
1342.78	164.98
1343.76	164.491
1344.73	164.085
1345.7	163.718
1346.68	163.432
1347.65	163.171
1348.62	162.996
1349.6	162.84
1350.57	162.773
1351.54	162.727
1352.51	162.746
1353.49	162.824
1354.46	162.927
1355.43	163.168
1356.4	163.376
1357.37	163.475
1358.34	162.537
1359.31	161.39
1360.28	160.201
1361.25	158.459
1362.22	156.731
1363.19	155.002
1364.16	153.337
1365.12	151.812
1366.09	150.478
1367.06	149.515
1368.03	148.75
1369	148.392
1369.96	148.217
1370.93	148.207
1371.9	148.285
1372.86	148.501
1373.83	148.773
1374.79	148.877
1375.76	149.231
1376.73	149.598
1377.69	150.05
1378.66	150.486
1379.62	150.952
1380.58	151.368
1381.55	151.838
1382.51	152.343
1383.48	152.749
1384.44	153.139
1385.4	153.468
1386.36	153.719
1387.33	153.911
1388.29	153.985
1389.25	153.867
1390.21	153.602
1391.17	153.241
1392.13	152.759
1393.09	152.08
1394.06	151.299
1395.01	149.983
1395.97	148.497
1396.93	146.851
1397.89	145.146
1398.85	143.328
1399.81	141.785
1400.77	140.464
1401.73	139.334
1402.69	138.477
1403.64	137.813
1404.6	137.542
1405.56	137.546
1406.52	138.043
1407.47	138.922
1408.43	140.063
1409.39	140.687
1410.34	140.046
1411.3	139.583
1412.25	139.318
1413.21	139.311
1414.16	139.478
1415.12	139.779
1416.07	140.175
1417.03	139.995
1417.98	139.231
1418.93	138.595
1419.89	138.085
1420.84	137.752
1421.79	137.595
1422.74	137.608
1423.7	137.929
1424.65	138.527
1425.6	139.334
1426.55	140.241
1427.5	141.308
1428.45	142.451
1429.4	143.092
1430.35	143.732
1431.3	143.391
1432.25	143.549
1433.2	143.928
1434.15	144.287
1435.1	144.427
1436.05	144.476
1437	144.082
1437.95	143.471
1438.89	142.946
1439.84	142.45
1440.79	141.011
1441.74	139.54
1442.68	138.361
1443.63	137.605
1444.58	137.178
1445.52	137.063
1446.47	137.219
1447.41	137.573
1448.36	138.047
1449.3	138.528
1450.25	139.053
1451.19	140.664
1452.14	141.474
1453.08	141.964
1454.03	140.922
1454.97	140.246
1455.91	139.518
1456.85	138.93
1457.8	137.346
1458.74	135.314
1459.68	133.512
1460.62	132.035
1461.57	130.743
1462.51	129.723
1463.45	129.269
1464.39	128.958
1465.33	128.721
1466.27	128.584
1467.21	128.485
1468.15	128.466
1469.09	128.414
1470.03	128.273
1470.97	128.12
1471.9	127.917
1472.84	127.715
1473.78	127.381
1474.72	127.026
1475.66	126.659
1476.59	126.281
1477.53	125.959
1478.47	125.647
1479.4	125.377
1480.34	125.172
1481.28	124.996
1482.21	124.939
1483.15	124.913
1484.08	125.292
1485.02	125.56
1485.95	126.143
1486.89	126.765
1487.82	127.614
1488.76	128.514
1489.69	129.388
1490.62	130.318
1491.56	130.188
1492.49	129.747
1493.42	129.025
1494.35	128.251
1495.29	127.352
1496.22	126.573
1497.15	125.81
1498.08	125.072
1499.01	124.369
1499.94	123.797
1500.87	123.168
1501.8	122.603
1502.73	122.031
1503.66	121.63
1504.59	121.414
1505.52	121.426
1506.45	121.659
1507.38	122.214
1508.31	123.543
1509.23	125.113
1510.16	127.187
1511.09	129.601
1512.02	132.451
1512.94	135.986
1513.87	139.704
1514.8	143.544
1515.72	147.224
1516.65	150.682
1517.58	153.969
1518.5	157.063
1519.43	160.052
1520.35	162.825
1521.28	165.481
1522.2	167.906
1523.12	170.216
1524.05	172.384
1524.97	174.229
1525.9	175.407
1526.82	175.35
1527.74	174.744
1528.66	173.571
1529.59	171.972
1530.51	169.84
1531.43	166.922
1532.35	163.848
1533.27	160.408
1534.19	156.834
1535.11	153.179
1536.04	149.895
1536.96	146.802
1537.88	143.618
1538.8	139.972
1539.71	136.637
1540.63	133.53
1541.55	130.683
1542.47	127.654
1543.39	125.089
1544.31	123.349
1545.23	121.891
1546.14	120.926
1547.06	120.578
1547.98	121.116
1548.89	122.058
1549.81	123.259
1550.73	124.286
1551.64	125.22
1552.56	125.742
1553.47	124.294
1554.39	122.899
1555.31	121.856
1556.22	120.855
1557.13	119.999
1558.05	118.876
1558.96	116.845
1559.88	114.882
1560.79	112.953
1561.7	111.219
1562.62	109.507
1563.53	108.055
1564.44	106.706
1565.35	105.578
1566.27	104.608
1567.18	103.813
1568.09	103.174
1569	102.636
1569.91	102.239
1570.82	101.871
1571.73	101.581
1572.64	101.344
1573.55	101.139
1574.46	100.927
1575.37	100.61
1576.28	100.323
1577.19	100.106
1578.1	99.9221
1579	99.7917
1579.91	99.7528
1580.82	99.7151
1581.73	99.6336
1582.63	99.6298
1583.54	99.5434
1584.45	99.2724
1585.35	98.9132
1586.26	98.4557
1587.17	98.2445
1588.07	98.0139
1588.98	97.8589
1589.88	98.0438
1590.79	98.1126
1591.69	98.275
1592.6	98.8542
1593.5	99.726
1594.4	100.369
1595.31	100.874
1596.21	101.001
1597.11	100.971
1598.02	100.821
1598.92	101.584
1599.82	102.62
1600.72	103.451
1601.63	103.542
1602.53	103.364
1603.43	103.282
1604.33	102.156
1605.23	102.485
1606.13	102.72
1607.03	102.245
1607.93	101.555
1608.83	100.677
1609.73	99.637
1610.63	98.6948
1611.53	97.6657
1612.43	96.6744
1613.32	95.8023
1614.22	95.3806
1615.12	95.3896
1616.02	95.2735
1616.92	95.1402
1617.81	95.0735
1618.71	94.9697
1619.61	95.0634
1620.5	95.0978
1621.4	95.2183
1622.29	95.4432
1623.19	95.2827
1624.08	95.0249
1624.98	94.8522
1625.87	94.5496
1626.77	94.2159
1627.66	94.1129
1628.56	94.3207
1629.45	94.6226
1630.34	94.85
1631.24	95.0694
1632.13	95.1145
1632.84	95.1897
1633.77	94.8385
1634.7	94.8414
1635.63	95.1638
1636.56	95.1432
1637.49	95.0349
1638.42	94.7
1639.34	93.875
1640.27	93.2418
1641.2	92.57
1642.13	92.0337
1643.05	91.8386
1643.98	91.3883
1644.91	91.2526
1645.83	91.1101
1646.76	91.0039
1647.68	90.55
1648.61	90.1647
1649.54	89.5603
1650.46	89.0269
1651.39	88.556
1652.31	87.8871
1653.23	87.5039
1654.16	87.2645
1655.08	86.9635
1656.01	86.5258
1656.93	86.7755
1657.85	86.9519
1658.78	87.9608
1659.7	88.609
1660.62	88.9985
1661.54	89.4795
1662.47	90.2029
1663.39	90.6623
1664.31	90.8419
1665.23	89.9576
1666.15	88.8851
1667.07	88.0168
1667.99	87.5817
1668.92	87.1147
1669.84	86.8766
1670.76	87.0224
1671.68	87.2331
1672.6	87.4426
1673.52	87.4104
1674.43	87.2952
1675.35	87.0424
1676.27	86.093
1677.19	86.241
1678.11	86.2748
1679.03	86.4028
1679.95	85.7939
1680.86	83.9498
1681.78	82.9364
1682.7	81.8624
1683.61	82.2008
1684.53	82.4153
1685.45	84.2856
1686.36	85.4249
1687.28	85.3757
1688.2	84.9089
1689.11	84.5472
1690.03	84.2872
1690.94	83.7983
1691.86	82.7856
1692.77	82.2719
1693.69	82.3514
1694.6	81.8583
1695.52	81.3738
1696.43	81.1124
1697.34	80.7394
1698.26	80.5998
1699.17	80.2043
1700.08	79.9849
1700.99	79.1848
1701.91	77.2662
1702.82	77.5945
1703.73	78.1014
1704.64	78.9834
1705.55	80.4819
1706.47	81.8241
1707.38	83.2952
1708.29	83.3403
1709.2	83.7766
1710.11	84.2637
1711.02	83.6863
1711.93	82.2288
1712.84	81.6494
1713.75	81.0157
1714.66	80.5263
1715.57	80.1195
1716.48	79.5205
1717.39	78.9136
1718.29	78.9383
1719.2	79.0173
1720.11	79.2668
1721.02	79.0797
1721.93	78.7671
1722.83	78.4575
1723.74	78.1859
1724.65	78.0465
1725.55	77.8617
1726.46	77.5503
1727.37	76.9755
1728.27	76.9065
1729.18	76.5837
1730.08	76.156
1730.99	75.9403
1731.89	75.8024
1732.8	75.9581
1733.7	75.7876
1734.61	74.9665
1735.51	74.7191
1736.42	74.0005
1737.32	73.4462
1738.22	72.7506
1739.13	72.0803
1740.03	71.7556
1740.93	71.5572
1741.83	71.6857
1742.74	71.8438
1743.64	71.9874
1744.54	72.2923
1745.44	72.3838
1746.34	72.9666
1747.24	73.8129
1748.15	74.4916
1749.05	74.9255
1749.95	75.4737
1750.85	75.4433
1751.75	75.3476
1752.65	75.2676
1753.55	75.4725
1754.45	75.0256
1755.35	74.5632
1756.25	74.2312
1757.14	73.731
1758.04	73.3815
1758.94	73.2024
1759.84	73.0259
1760.74	72.731
1761.63	72.0491
1762.53	71.164
1763.43	70.0131
1764.33	69.4823
1765.22	69.2527
1766.12	68.8677
1767.02	68.6835
1767.91	68.5887
1768.81	68.2545
1769.7	68.0296
1770.6	67.5064
1771.49	67.22
1772.39	67.0741
1773.28	67.5484
1774.18	67.9561
1775.07	68.5661
1775.97	69.0846
1776.86	69.9363
1777.75	70.4251
1778.65	70.8739
1779.54	71.5026
1780.43	72.2036
1781.33	72.8969
1782.22	73.3425
1783.11	72.5828
1784	71.884
1784.89	71.036
1785.79	70.4406
1786.68	69.8898
1787.57	69.7616
1788.46	69.9824
1789.35	69.7309
1790.24	69.6021
1791.13	69.3458
1792.02	69.5255
1792.91	69.5442
1793.8	69.4992
1794.69	68.5019
1795.58	67.94
1796.47	67.5497
1797.36	66.6335
1798.25	65.3012
1799.13	63.5875
