Acq. time (s)=	15
Accumulations=	2
Range (cm-¹)=	600...1800
Windows=	2
Autofocus=	Off
AutoExposure=	On
Spike filter=	Multiple accum.
Delay time (s)=	1
Binning=	1
Readout mode=	Signal
DeNoise=	Standard
ICS correction=	Off
Dark correction=	Off
Inst. Process=	Off
Instrument=	XploRA
Detector=	Syncerity
Objective=	x20LWD
Grating=	1200 gr/mm
Filter=	25%
Laser (nm)=	785 
Slit (µm)=	100 
Hole (µm)=	300 
Laser pol=	None
Raman pol=	None
Output=	Camera
StageXY=	Marzhauser
StageZ=	
X (µm)=	-9950.4
Y (µm)=	-4430.3
Project=	
Sample=	
Site=	
Title=	To3-T
Remark=	
Date=	14.10.2022 19:50
Acquired=	14.10.2022 19:50:51
600.787	1218.3
601.956	1225.29
603.126	1234.87
604.294	1246.1
605.463	1256.78
606.631	1267.22
607.8	1277.34
608.967	1286.45
610.135	1294.6
611.302	1302.3
612.468	1309.6
613.635	1316.62
614.802	1323.45
615.968	1330.54
617.133	1337.25
618.299	1343.7
619.464	1350.08
620.629	1356.38
621.793	1363.03
622.958	1369.5
624.121	1375.72
625.285	1381.7
626.448	1386.89
627.612	1391.92
628.774	1394.95
629.937	1397.5
631.099	1399.67
632.261	1401.53
633.423	1403.31
634.584	1404.85
635.745	1406.24
636.906	1407.45
638.066	1409.24
639.227	1410.26
640.386	1411.41
641.546	1412.42
642.705	1413.94
643.864	1414.78
645.023	1415.56
646.181	1415.96
647.339	1416.9
648.497	1417.39
649.655	1418.13
650.812	1419.15
651.969	1420.76
653.125	1422.88
654.282	1425.85
655.438	1429.89
656.593	1434.04
657.75	1438.46
658.905	1443.33
660.059	1448.28
661.214	1452.88
662.368	1457.9
663.522	1462.93
664.676	1467.36
665.83	1470.64
666.983	1473.25
668.136	1475.07
669.288	1476.74
670.441	1478.23
671.592	1479.73
672.744	1480.61
673.895	1481.53
675.046	1482.28
676.197	1484.02
677.348	1486.91
678.498	1489.83
679.648	1492.71
680.798	1495.6
681.947	1498.2
683.096	1500.74
684.245	1503.03
685.394	1504.98
686.542	1506.76
687.69	1508.15
688.837	1509.3
689.984	1509.99
691.132	1510.63
692.278	1510.98
693.425	1510.98
694.571	1509.17
695.717	1507.94
696.863	1508.99
698.008	1511.74
699.152	1513.77
700.298	1513.87
701.442	1511.55
702.586	1506.56
703.73	1500.4
704.873	1486.37
706.017	1477.45
707.16	1472.43
708.302	1471.75
709.445	1470.68
710.586	1469.49
711.729	1468.35
712.87	1467.54
714.012	1466.63
715.152	1466.44
716.293	1466.15
717.433	1465.51
718.573	1464.24
719.713	1462.37
720.853	1460.23
721.991	1457.76
723.131	1454.89
724.269	1451.79
725.408	1448.08
726.545	1443.79
727.683	1440.41
728.821	1439.62
729.958	1440.68
731.095	1443.63
732.231	1447.8
733.368	1454.41
734.503	1461.94
735.639	1469.92
736.775	1477.52
737.91	1483.87
739.045	1490.1
740.179	1496.36
741.313	1501.77
742.447	1505.08
743.581	1506.08
744.714	1504.87
745.847	1500.84
746.98	1498.13
748.113	1490.6
749.245	1483.97
750.377	1476.77
751.509	1470.86
752.64	1461.58
753.771	1456.37
754.902	1451.66
756.033	1450.47
757.163	1436.16
758.293	1423.43
759.423	1412.1
760.551	1402.14
761.681	1394.06
762.81	1393.45
763.938	1387.75
765.066	1382.79
766.194	1378.16
767.321	1373.76
768.449	1368.99
769.576	1364.99
770.703	1361.09
771.83	1357.16
772.955	1352.93
774.081	1348.31
775.207	1342.5
776.332	1336.78
777.457	1331.12
778.582	1325.53
779.707	1320.05
780.831	1315.7
781.954	1312.61
783.078	1309.78
784.201	1308.08
785.324	1306.55
786.447	1305.11
787.569	1303.18
788.691	1301.06
789.813	1298.34
790.935	1294.7
792.056	1290.75
793.177	1286.19
794.297	1280.9
795.418	1275.19
796.539	1269.24
797.658	1265.16
798.777	1261.39
799.897	1257.87
801.016	1253.98
802.134	1250.92
803.253	1248
804.371	1245.3
805.489	1242.7
806.606	1240.13
807.723	1237.78
808.84	1235.07
809.957	1232.42
811.073	1229.69
812.19	1227.31
813.305	1225.45
814.421	1223.88
815.536	1222.48
816.651	1220.92
817.766	1218.96
818.88	1217.58
819.994	1217.62
821.108	1217.09
822.221	1216.23
823.335	1214.71
824.448	1213.43
825.56	1213.17
826.673	1212.74
827.784	1211.99
828.897	1210.43
830.008	1207.2
831.119	1203.42
832.23	1199.86
833.341	1196.89
834.451	1194.06
835.561	1191.13
836.671	1188.02
837.78	1184.78
838.89	1181.33
839.998	1177.99
841.108	1174.88
842.216	1172.02
843.324	1169.3
844.431	1168.18
845.539	1167.45
846.646	1166.94
847.753	1166.29
848.859	1164.92
849.966	1163.56
851.071	1161.78
852.178	1159.93
853.283	1157.74
854.388	1155.59
855.494	1153.21
856.598	1151.05
857.703	1149.45
858.806	1148.84
859.91	1149.34
861.014	1149.76
862.116	1150.94
863.22	1149.05
864.322	1146.04
865.425	1142.02
866.527	1137.81
867.628	1133.4
868.73	1128.66
869.831	1124.36
870.932	1121.19
872.032	1120.8
873.133	1117.21
874.233	1112.61
875.333	1107.95
876.432	1103.09
877.532	1100.31
878.631	1097.84
879.729	1095.28
880.828	1092.75
881.926	1090.47
883.023	1088.48
884.121	1087
885.218	1085.82
886.315	1085.19
887.412	1084.89
888.508	1085.08
889.604	1085.86
890.699	1087.17
891.795	1088.42
892.89	1087.86
893.985	1084.94
895.08	1081.7
896.174	1079.18
897.268	1076.88
898.362	1074.86
899.456	1073.36
900.549	1071.5
901.642	1069.94
902.734	1069.54
903.827	1070.72
904.919	1072.96
906.011	1076.11
907.102	1079.47
908.193	1083.63
909.284	1088.44
910.375	1093.65
911.465	1096.35
912.555	1099.06
913.645	1101.32
914.734	1102.23
915.824	1100.63
916.913	1101.56
918.001	1097.99
919.09	1091.92
920.177	1084.57
921.266	1075.63
922.353	1065.49
923.44	1054.71
924.527	1043.57
925.614	1032.41
926.7	1021.96
927.786	1012.55
928.873	1004.55
929.958	997.667
931.043	992.018
932.128	987.651
933.213	984.684
934.297	983.447
935.381	983.916
936.465	985.179
937.549	986.418
938.632	987.018
939.715	987.31
940.798	986.242
941.881	984.453
942.962	981.071
944.044	978.388
945.125	975.994
946.207	973.589
947.288	971.144
948.368	968.79
949.449	965.557
950.529	962.239
951.61	959.034
952.689	956.548
953.769	955.107
954.847	953.689
955.926	952.287
957.004	951.023
958.082	949.356
959.16	947.841
960.238	946.612
961.316	945.311
962.392	944.003
963.469	943.29
964.546	943.239
965.622	943.432
966.698	943.44
967.774	943.64
968.849	944.254
969.924	945.029
970.998	946.029
972.073	947.246
973.148	948.579
974.221	950.276
975.295	952.151
976.369	954.393
977.441	956.856
978.514	959.602
979.587	962.638
980.659	965.967
981.731	969.641
982.802	973.412
983.874	977.072
984.945	979.702
986.016	982.317
987.087	984.029
988.157	983.474
989.227	981.483
990.296	978.732
991.366	975.67
992.435	971.735
993.504	967.129
994.573	962.528
995.641	958.918
996.709	956.041
997.777	953.727
998.844	951.541
999.911	949.356
1000.98	946.728
1002.05	943.909
1003.11	940.662
1004.18	936.301
1005.24	930.884
1006.31	925.873
1007.37	920.447
1008.44	914.387
1009.5	907.91
1010.57	900.564
1011.63	892.219
1012.7	883.782
1013.76	876.41
1014.82	870.795
1015.89	865.867
1016.95	861.287
1018.01	856.792
1019.07	852.898
1020.13	849.447
1021.2	846.566
1022.26	844.622
1023.32	843.161
1024.38	841.932
1025.44	839.704
1026.5	837.235
1027.56	834.789
1028.62	832.385
1029.68	830.119
1030.74	827.842
1031.8	825.57
1032.85	823.376
1033.91	821.306
1034.97	819.351
1036.03	817.737
1037.09	815.726
1038.14	815.189
1039.2	816.986
1040.26	818.439
1041.31	820.356
1042.37	823.268
1043.42	825.995
1044.48	828.184
1045.53	828.599
1046.59	827.908
1047.64	826.509
1048.7	825.738
1049.75	823.927
1050.81	819.933
1051.86	814.912
1052.91	810.365
1053.97	806.153
1055.02	802.717
1056.07	800.046
1057.12	797.916
1058.17	796.186
1059.23	796.332
1060.28	797.285
1061.33	799.015
1062.38	800.757
1063.43	802.883
1064.48	805.312
1065.53	807.228
1066.58	808.428
1067.63	808.122
1068.68	806.791
1069.72	804.399
1070.77	801.115
1071.82	797.31
1072.87	793.283
1073.92	789.377
1074.96	785.111
1076.01	780.597
1077.06	775.428
1078.1	770.293
1079.15	765.284
1080.2	761.785
1081.24	759.211
1082.29	756.974
1083.33	753.82
1084.38	750.905
1085.42	749.394
1086.47	748.292
1087.51	747.524
1088.55	747.258
1089.6	747.198
1090.64	747.268
1091.68	747.307
1092.73	747.453
1093.77	747.356
1094.81	747.399
1095.85	747.222
1096.89	747.182
1097.93	747.804
1098.98	748.869
1100.02	749.953
1101.06	750.947
1102.1	751.69
1103.14	752.072
1104.18	752.055
1105.21	752.229
1106.25	752.271
1107.29	752.143
1108.33	751.437
1109.37	750.062
1110.41	748.532
1111.44	746.616
1112.48	744.494
1113.52	742.152
1114.56	739.683
1115.59	737.146
1116.63	734.547
1117.66	731.817
1118.7	729.19
1119.73	726.203
1120.77	723.758
1121.8	724.166
1122.84	721.632
1123.87	719.96
1124.91	717.54
1125.94	715.298
1126.97	712.69
1128.01	708.189
1129.04	702.628
1130.07	701.538
1131.11	702
1132.14	703.993
1133.17	707.827
1134.2	713.404
1135.23	720.375
1136.26	728.414
1137.29	740.904
1138.32	748.436
1139.35	755.124
1140.38	762.637
1141.41	769.187
1142.44	774.901
1143.47	775.358
1144.5	777.306
1145.53	777.879
1146.56	776.594
1147.58	779.475
1148.61	785.922
1149.64	791.766
1150.67	798.65
1151.69	805.642
1152.72	814.228
1153.75	824.961
1154.77	829.615
1155.8	840.219
1156.82	837.916
1157.85	832.704
1158.87	823.417
1159.9	801.886
1160.92	784.482
1161.95	765.254
1162.97	749.552
1163.99	736.201
1165.02	721.811
1166.04	707.964
1167.06	701.216
1168.08	694.686
1169.11	690.311
1170.13	686.125
1171.15	685.252
1172.17	684.575
1173.19	685.479
1174.21	686.985
1175.23	690.086
1176.25	691.477
1177.27	697.145
1178.29	703.778
1179.31	711.438
1180.33	718.975
1181.35	726.029
1182.37	731.594
1183.39	735.588
1184.4	737.483
1185.42	737.273
1186.44	735.53
1187.46	732.66
1188.47	728.681
1189.49	720.225
1190.51	713.524
1191.52	705.028
1192.54	697.043
1193.55	689.568
1194.57	682.611
1195.58	676.186
1196.6	670.013
1197.61	664.821
1198.63	660.628
1199.64	657.153
1200.65	654.07
1201.67	651.464
1202.68	649.199
1203.69	646.87
1204.7	644.952
1205.72	643.202
1206.73	642.01
1207.74	641.743
1208.75	642.219
1209.76	642.811
1210.77	643.671
1211.78	644.425
1212.79	645.373
1213.8	646.693
1214.81	648.238
1215.82	650.005
1216.83	651.953
1217.84	654.26
1218.85	656.914
1219.86	659.719
1220.87	662.496
1221.87	663.883
1222.88	664.084
1223.89	663.02
1224.9	660.79
1225.9	657.339
1226.91	652.863
1227.92	647.436
1228.92	641.091
1229.93	634.429
1230.93	627.068
1231.94	619.599
1232.94	613.555
1233.95	608.166
1234.95	606.767
1235.95	602.423
1236.96	598.9
1237.96	596.02
1238.96	593.345
1239.97	590.637
1240.97	588.475
1241.97	586.442
1242.97	584.513
1243.98	582.54
1244.98	580.284
1245.98	577.74
1246.98	575.07
1247.98	572.463
1248.98	569.602
1249.98	566.809
1250.98	564.181
1251.98	562.573
1252.98	561.9
1253.98	561.483
1254.98	561.307
1255.98	561.153
1256.97	561.461
1257.97	562.342
1258.97	563.156
1259.97	563.666
1260.97	563.526
1261.96	563.301
1262.96	562.763
1263.95	562.116
1264.95	561.442
1265.95	560.663
1266.94	559.441
1267.94	557.243
1268.93	554.576
1269.93	550.489
1270.92	548.167
1271.92	547.024
1272.91	546.794
1273.9	546.629
1274.9	545.91
1275.89	543.845
1276.88	544.62
1277.87	546.603
1278.87	549.393
1279.86	552.704
1280.85	556.437
1281.84	560.866
1282.83	565.806
1283.82	571.588
1284.81	572.91
1285.81	572.64
1286.8	570.183
1287.79	565.359
1288.77	561
1289.76	556.338
1290.75	550.515
1291.74	541.599
1292.73	534.303
1293.72	528.301
1294.71	523.398
1295.69	518.946
1296.68	515.612
1297.67	517.738
1298.65	517.656
1299.64	518.257
1300.63	519.844
1301.61	521.723
1302.6	523.588
1303.58	527.188
1304.57	530.667
1305.55	532.69
1306.54	533.671
1307.52	533.315
1308.51	531.861
1309.49	529.264
1310.48	525.212
1311.46	522.456
1312.44	519.996
1313.42	518.304
1314.41	515.687
1315.39	515.355
1316.37	514.689
1317.35	517.071
1318.33	521.763
1319.32	528.898
1320.3	538.818
1321.28	549.008
1322.26	558.357
1323.24	567.876
1324.22	575.891
1325.2	583.372
1326.18	594.125
1327.15	592.364
1328.13	587.494
1329.11	579.21
1330.09	567.909
1331.07	549.101
1332.05	539.47
1333.02	526.172
1334	514.716
1334.98	507.741
1335.95	502.882
1336.93	500.999
1337.91	500.506
1338.88	500.955
1339.86	500.739
1340.83	498.779
1341.81	496.586
1342.78	493.885
1343.76	490.93
1344.73	487.717
1345.7	483.624
1346.68	481.05
1347.65	476.968
1348.62	475.344
1349.6	474.641
1350.57	474.712
1351.54	475.41
1352.51	476.861
1353.49	478.577
1354.46	479.802
1355.43	479.494
1356.4	477.3
1357.37	474.183
1358.34	471.631
1359.31	469.279
1360.28	466.31
1361.25	463.095
1362.22	455.989
1363.19	451.569
1364.16	447.872
1365.12	444.543
1366.09	442.477
1367.06	443.655
1368.03	442.166
1369	441.701
1369.96	442.767
1370.93	443.673
1371.9	444.457
1372.86	445.078
1373.83	445.496
1374.79	445.785
1375.76	445.728
1376.73	445.541
1377.69	445.151
1378.66	444.642
1379.62	444.027
1380.58	443.189
1381.55	442.354
1382.51	441.256
1383.48	440.297
1384.44	439.536
1385.4	440.245
1386.36	441.325
1387.33	442.643
1388.29	444.631
1389.25	446.338
1390.21	447.685
1391.17	448.186
1392.13	447.661
1393.09	446.651
1394.06	445.246
1395.01	443.43
1395.97	441.433
1396.93	439.574
1397.89	436.712
1398.85	433.376
1399.81	429.974
1400.77	426.57
1401.73	423.662
1402.69	420.853
1403.64	418.276
1404.6	415.985
1405.56	414.107
1406.52	412.479
1407.47	411.097
1408.43	410.142
1409.39	409.669
1410.34	410.074
1411.3	410.834
1412.25	412.658
1413.21	413.229
1414.16	413.807
1415.12	414.065
1416.07	414.618
1417.03	414.414
1417.98	411.309
1418.93	409.622
1419.89	411.824
1420.84	411.76
1421.79	411.778
1422.74	411.906
1423.7	412.135
1424.65	412.447
1425.6	412.874
1426.55	413.431
1427.5	414.08
1428.45	414.91
1429.4	415.809
1430.35	416.821
1431.3	418.099
1432.25	419.521
1433.2	421.041
1434.15	422.654
1435.1	424.33
1436.05	425.772
1437	427.04
1437.95	427.176
1438.89	427.266
1439.84	426.902
1440.79	424.618
1441.74	422.892
1442.68	421.759
1443.63	421.469
1444.58	418.923
1445.52	415.898
1446.47	412.255
1447.41	408.154
1448.36	403.077
1449.3	398.172
1450.25	394.731
1451.19	391.575
1452.14	388.786
1453.08	386.248
1454.03	384.551
1454.97	383.358
1455.91	382.759
1456.85	382.858
1457.8	383.554
1458.74	384.397
1459.68	385.145
1460.62	385.543
1461.57	385.187
1462.51	384.694
1463.45	384.429
1464.39	384.579
1465.33	384.647
1466.27	383.69
1467.21	382.221
1468.15	381.901
1469.09	381.199
1470.03	380.08
1470.97	378.69
1471.9	377.321
1472.84	376.078
1473.78	374.838
1474.72	373.701
1475.66	372.596
1476.59	371.613
1477.53	370.979
1478.47	370.432
1479.4	370.103
1480.34	370.036
1481.28	370.202
1482.21	371.064
1483.15	373.22
1484.08	375.484
1485.02	377.726
1485.95	379.088
1486.89	380.37
1487.82	380.772
1488.76	380.846
1489.69	380.665
1490.62	380.181
1491.56	379.513
1492.49	378.815
1493.42	377.951
1494.35	376.89
1495.29	375.416
1496.22	374.287
1497.15	372.75
1498.08	370.942
1499.01	369.204
1499.94	367.521
1500.87	366.718
1501.8	365.748
1502.73	364.922
1503.66	364.495
1504.59	364.584
1505.52	365.105
1506.45	366.376
1507.38	368.346
1508.31	369.398
1509.23	371.951
1510.16	376.004
1511.09	382.275
1512.02	388.83
1512.94	398.196
1513.87	406.889
1514.8	415.531
1515.72	425.647
1516.65	437.088
1517.58	449.276
1518.5	462.279
1519.43	476.584
1520.35	488.61
1521.28	499.886
1522.2	509.491
1523.12	517.192
1524.05	522.694
1524.97	520.758
1525.9	521.969
1526.82	521.486
1527.74	517.923
1528.66	511.844
1529.59	505.402
1530.51	498.229
1531.43	490.123
1532.35	481.067
1533.27	471.413
1534.19	461.389
1535.11	451.333
1536.04	440.435
1536.96	429.737
1537.88	419.236
1538.8	408.798
1539.71	399.102
1540.63	390.477
1541.55	382.857
1542.47	376.27
1543.39	370.873
1544.31	367.121
1545.23	364.743
1546.14	363.413
1547.06	362.399
1547.98	361.888
1548.89	361.791
1549.81	362.064
1550.73	362.896
1551.64	364.177
1552.56	363.827
1553.47	362.522
1554.39	360.245
1555.31	357.161
1556.22	353.22
1557.13	348.486
1558.05	343.371
1558.96	337.859
1559.88	332.575
1560.79	327.603
1561.7	323.285
1562.62	319.641
1563.53	316.801
1564.44	314.42
1565.35	311.455
1566.27	308.824
1567.18	306.938
1568.09	305.293
1569	303.965
1569.91	303.544
1570.82	302.833
1571.73	302.856
1572.64	302.86
1573.55	302.761
1574.46	302.354
1575.37	301.474
1576.28	300.677
1577.19	300.099
1578.1	299.388
1579	298.479
1579.91	297.954
1580.82	298.211
1581.73	298.282
1582.63	297.5
1583.54	296.021
1584.45	294.558
1585.35	292.992
1586.26	291.906
1587.17	290.897
1588.07	290.254
1588.98	289.939
1589.88	290.016
1590.79	290.196
1591.69	291.367
1592.6	292.954
1593.5	293.91
1594.4	294.576
1595.31	294.97
1596.21	295.09
1597.11	295.536
1598.02	296.015
1598.92	296.58
1599.82	296.788
1600.72	296.838
1601.63	297.398
1602.53	298.568
1603.43	300.505
1604.33	302.4
1605.23	304.178
1606.13	305.398
1607.03	306.477
1607.93	307.009
1608.83	307.227
1609.73	307.199
1610.63	306.54
1611.53	305.58
1612.43	304.499
1613.32	302.951
1614.22	301.592
1615.12	299.97
1616.02	298.118
1616.92	296.781
1617.81	294.884
1618.71	292.858
1619.61	290.285
1620.5	287.672
1621.4	285.207
1622.29	283.341
1623.19	282.226
1624.08	281.907
1624.98	282.089
1625.87	282.871
1626.77	283.149
1627.66	282.649
1628.56	282.496
1629.45	282.673
1630.34	282.948
1631.24	282.917
1632.13	282.484
1632.84	282.981
1633.77	283.221
1634.7	282.79
1635.63	282.274
1636.56	282.089
1637.49	281.095
1638.42	279.838
1639.34	279.024
1640.27	278.481
1641.2	277.98
1642.13	278.659
1643.05	279.61
1643.98	279.191
1644.91	277.292
1645.83	276.118
1646.76	275.751
1647.68	275.431
1648.61	275.088
1649.54	273.836
1650.46	272.542
1651.39	271.991
1652.31	271.836
1653.23	272.075
1654.16	272.976
1655.08	274.106
1656.01	275.378
1656.93	276.405
1657.85	277.055
1658.78	277.978
1659.7	278.013
1660.62	278.512
1661.54	277.989
1662.47	276.892
1663.39	275.285
1664.31	273.472
1665.23	272.015
1666.15	270.34
1667.07	268.754
1667.99	267.196
1668.92	265.771
1669.84	264.478
1670.76	263.301
1671.68	262.247
1672.6	261.295
1673.52	260.578
1674.43	259.915
1675.35	259.56
1676.27	259.272
1677.19	259.346
1678.11	259.442
1679.03	259.717
1679.95	260.016
1680.86	260.308
1681.78	259.832
1682.7	259.144
1683.61	258.886
1684.53	258.291
1685.45	258.316
1686.36	258.527
1687.28	257.977
1688.2	257.7
1689.11	257.36
1690.03	257.07
1690.94	256.763
1691.86	256.527
1692.77	256.249
1693.69	256.053
1694.6	255.843
1695.52	255.666
1696.43	255.424
1697.34	255.267
1698.26	255.057
1699.17	254.829
1700.08	254.559
1700.99	253.8
1701.91	252.04
1702.82	250.711
1703.73	250.315
1704.64	249.674
1705.55	248.856
1706.47	248.001
1707.38	247.111
1708.29	246.1
1709.2	245.042
1710.11	243.742
1711.02	242.458
1711.93	240.802
1712.84	239.115
1713.75	237.602
1714.66	236.319
1715.57	236.364
1716.48	236.534
1717.39	236.928
1718.29	237.509
1719.2	237.998
1720.11	238.485
1721.02	238.132
1721.93	237.928
1722.83	238.324
1723.74	238.161
1724.65	238.585
1725.55	238.51
1726.46	238.63
1727.37	238.681
1728.27	239.221
1729.18	240.08
1730.08	240.351
1730.99	238.823
1731.89	236.436
1732.8	233.925
1733.7	231.832
1734.61	229.674
1735.51	227.513
1736.42	225.55
1737.32	223.659
1738.22	222.11
1739.13	220.92
1740.03	220.672
1740.93	221.177
1741.83	222.155
1742.74	224.352
1743.64	225.255
1744.54	225.257
1745.44	225.583
1746.34	225.655
1747.24	225.388
1748.15	225.042
1749.05	225.761
1749.95	226.509
1750.85	226.972
1751.75	227.767
1752.65	228.276
1753.55	228.326
1754.45	227.738
1755.35	227.124
1756.25	226.383
1757.14	225.582
1758.04	224.798
1758.94	224.039
1759.84	223.282
1760.74	222.579
1761.63	221.881
1762.53	221.286
1763.43	220.679
1764.33	220.264
1765.22	219.972
1766.12	219.93
1767.02	220.171
1767.91	220.469
1768.81	219.433
1769.7	218.744
1770.6	218.321
1771.49	218.16
1772.39	218.31
1773.28	218.414
1774.18	218.095
1775.07	217.459
1775.97	216.422
1776.86	215.089
1777.75	213.674
1778.65	212.614
1779.54	211.999
1780.43	210.814
1781.33	209.669
1782.22	208.487
1783.11	207.433
1784	206.497
1784.89	205.657
1785.79	204.943
1786.68	204.33
1787.57	203.965
1788.46	203.678
1789.35	203.691
1790.24	203.761
1791.13	204.172
1792.02	204.683
1792.91	205.401
1793.8	206.178
1794.69	206.968
1795.58	207.648
1796.47	205.942
1797.36	206.128
1798.25	203.02
1799.13	200.804
