Acq. time (s)=	15
Accumulations=	2
Range (cm-¹)=	600...1800
Windows=	2
Autofocus=	Off
AutoExposure=	Off
Spike filter=	Multiple accum.
Delay time (s)=	1
Binning=	1
Readout mode=	Signal
DeNoise=	Standard
ICS correction=	Off
Dark correction=	Off
Inst. Process=	Off
Instrument=	XploRA
Detector=	Syncerity
Objective=	x20LWD
Grating=	1200 gr/mm
Filter=	25%
Laser (nm)=	785 
Slit (µm)=	100 
Hole (µm)=	300 
Laser pol=	None
Raman pol=	None
Output=	Camera
StageXY=	Marzhauser
StageZ=	
X (µm)=	7235.2
Y (µm)=	3640.8
Project=	
Sample=	
Site=	
Title=	To2
Remark=	
Date=	29.10.2022 04:51
Acquired=	29.10.2022 04:51:25
600.839	1483.4
602.009	1495.24
603.178	1509.96
604.347	1528.78
605.516	1547.91
606.684	1566.46
607.852	1584.1
609.02	1600.84
610.187	1617.31
611.355	1633.37
612.521	1649.06
613.688	1665.25
614.854	1680.75
616.02	1695.7
617.185	1709.65
618.351	1721.95
619.516	1733.11
620.681	1742.8
621.846	1751.22
623.009	1758.74
624.174	1765.14
625.337	1770.58
626.501	1775.27
627.664	1779.11
628.826	1780.51
629.988	1777.9
631.151	1779.35
632.313	1782.85
633.474	1787.73
634.635	1794.21
635.797	1802.12
636.958	1809.66
638.117	1815.56
639.278	1815.95
640.437	1811.83
641.597	1799.54
642.756	1793.33
643.915	1792.85
645.074	1796.95
646.233	1804.34
647.391	1810.67
648.548	1816.7
649.706	1819.75
650.863	1821.47
652.02	1830.29
653.176	1847.08
654.333	1842.48
655.489	1844.16
656.645	1845.49
657.8	1847.07
658.955	1848.61
660.11	1850.12
661.264	1851.27
662.419	1851.84
663.573	1852.37
664.727	1852.48
665.88	1852.75
667.033	1853.12
668.186	1853.74
669.338	1854.8
670.491	1856.56
671.643	1859.36
672.794	1862.96
673.945	1867.08
675.096	1871.6
676.247	1876.31
677.398	1880.98
678.548	1884.79
679.698	1888.97
680.847	1892.85
681.997	1896.54
683.146	1898.39
684.294	1898.13
685.443	1898.17
686.591	1900.9
687.739	1902.44
688.887	1902.93
690.034	1900.88
691.181	1897.9
692.328	1892.54
693.474	1887.78
694.62	1887.11
695.766	1887.1
696.911	1887.58
698.057	1888.23
699.202	1886.61
700.346	1884.8
701.49	1881.95
702.635	1878.54
703.779	1867.42
704.922	1862.87
706.065	1859.27
707.208	1855.79
708.351	1853.41
709.493	1856.79
710.635	1856.1
711.776	1854.65
712.918	1852.81
714.059	1850.98
715.2	1849.17
716.341	1847.68
717.481	1846.03
718.621	1844.29
719.761	1842.34
720.9	1840.32
722.04	1838.27
723.178	1836.13
724.317	1833.06
725.455	1830.09
726.594	1828
727.731	1826.48
728.868	1827.35
730.005	1829.16
731.142	1832.19
732.279	1835.7
733.415	1839.93
734.551	1845.19
735.686	1850.41
736.822	1855.23
737.957	1858.91
739.092	1861.67
740.226	1862.94
741.36	1863.13
742.495	1861.81
743.628	1859.2
744.762	1855.65
745.895	1850.19
747.027	1843.39
748.16	1835.75
749.292	1827.78
750.423	1820.84
751.555	1813.67
752.686	1807.54
753.817	1805.4
754.949	1790.39
756.079	1777.51
757.209	1765.29
758.339	1753.62
759.469	1742.11
760.597	1732.8
761.727	1724.88
762.856	1718.25
763.984	1712.03
765.112	1705.83
766.24	1701.47
767.367	1697.94
768.494	1694.67
769.622	1691.58
770.749	1687.22
771.874	1683.8
773.001	1680.53
774.127	1677.13
775.253	1673.64
776.377	1669.85
777.503	1665.68
778.627	1661.11
779.751	1656.02
780.876	1650.52
782	1645.21
783.123	1639.33
784.246	1633.52
785.37	1627.62
786.492	1621.94
787.614	1616.76
788.737	1612.24
789.858	1608.33
790.979	1604.95
792.101	1602.18
793.222	1599.56
794.342	1597.25
795.463	1594.96
796.583	1592.31
797.702	1589.59
798.822	1586.73
799.942	1583.8
801.06	1580.47
802.179	1577.08
803.297	1573.04
804.415	1568.67
805.533	1564.46
806.651	1560.47
807.768	1556.76
808.885	1553.97
810.001	1552.77
811.118	1551.64
812.233	1551.26
813.349	1551.94
814.464	1553.12
815.58	1554.94
816.695	1555.58
817.809	1554.31
818.924	1552.86
820.038	1550.95
821.152	1549.66
822.265	1548.89
823.378	1548.87
824.491	1548.51
825.604	1548.23
826.716	1547.58
827.828	1546.77
828.94	1545.27
830.051	1543.84
831.162	1542.53
832.273	1541.32
833.383	1540.13
834.494	1538.82
835.604	1537.44
836.714	1536.11
837.823	1534.43
838.932	1532.61
840.041	1530.44
841.15	1528.15
842.258	1525.76
843.366	1523.24
844.474	1520.47
845.581	1517.61
846.688	1514.76
847.795	1511.88
848.901	1508.61
850.008	1506.07
851.115	1504.87
852.22	1503.71
853.325	1502.39
854.43	1500.57
855.536	1498.2
856.64	1494.26
857.745	1489.27
858.848	1483.45
859.952	1477
861.055	1470.21
862.158	1463.32
863.261	1457.58
864.364	1450.36
865.466	1443.04
866.568	1435.68
867.67	1428.64
868.771	1422.14
869.873	1416.56
870.973	1412.43
872.074	1408.78
873.174	1405.92
874.274	1403.47
875.374	1401.56
876.473	1399.52
877.572	1397.59
878.671	1395.71
879.77	1394.25
880.868	1393.14
881.966	1392.57
883.064	1392.63
884.161	1393.2
885.258	1394.45
886.356	1395.86
887.452	1397.32
888.548	1398.14
889.645	1397.92
890.74	1396.66
891.836	1394.89
892.931	1392.81
894.025	1390.61
895.12	1388.28
896.214	1386.3
897.308	1384.25
898.402	1382.42
899.495	1380.9
900.588	1379.74
901.681	1379.32
902.774	1380.22
903.866	1381.54
904.958	1382.92
906.05	1384.38
907.142	1385.64
908.233	1386.51
909.324	1386.48
910.414	1386.31
911.504	1385.85
912.594	1384.86
913.684	1383.56
914.774	1381.87
915.863	1379.54
916.952	1376.71
918.041	1373.2
919.129	1369.28
920.217	1363.74
921.305	1356.39
922.392	1349.04
923.48	1341.59
924.567	1334.56
925.653	1327.1
926.74	1319.73
927.825	1312.86
928.911	1306.09
929.997	1300.55
931.082	1296.15
932.166	1293.2
933.252	1291
934.336	1289.29
935.42	1288.09
936.504	1287.09
937.587	1286.12
938.671	1284.94
939.753	1283.82
940.836	1282.43
941.919	1280.73
943	1278.73
944.082	1276.58
945.163	1274.37
946.245	1272.12
947.326	1269.8
948.406	1267.43
949.487	1265.08
950.567	1262.58
951.647	1260.02
952.727	1257.46
953.805	1254.91
954.885	1252.22
955.964	1249.33
957.042	1246.18
958.12	1242.57
959.198	1238.9
960.276	1235.26
961.352	1231.78
962.43	1228.73
963.507	1226.44
964.583	1225.1
965.659	1224.78
966.735	1225.36
967.81	1226.73
968.885	1228.86
969.961	1231.48
971.036	1234.41
972.11	1237.47
973.184	1240.81
974.258	1244.2
975.332	1247.57
976.405	1251.22
977.478	1254.78
978.551	1258.17
979.624	1261.25
980.696	1264.18
981.767	1266.09
982.839	1266.93
983.911	1266.77
984.982	1265.98
986.052	1264.7
987.123	1262.87
988.193	1260.76
989.263	1258.7
990.333	1256.94
991.403	1255
992.471	1253.83
993.54	1254.16
994.608	1254.33
995.677	1253.94
996.745	1252.1
997.812	1249.59
998.88	1246.05
999.947	1241.9
1001.01	1237.05
1002.08	1231.84
1003.15	1226.03
1004.21	1220.12
1005.28	1214.06
1006.34	1208.13
1007.41	1202.23
1008.47	1196.6
1009.54	1191.2
1010.6	1186.19
1011.67	1181.23
1012.73	1176.46
1013.79	1171.44
1014.86	1165.54
1015.92	1158.75
1016.98	1151.36
1018.05	1145.25
1019.11	1140.53
1020.17	1136.41
1021.23	1132.53
1022.29	1128.63
1023.35	1123.7
1024.41	1119.1
1025.47	1114.24
1026.53	1109.58
1027.59	1105.07
1028.65	1100.81
1029.71	1097
1030.77	1093.59
1031.83	1090.78
1032.89	1088.58
1033.95	1086.94
1035	1086.04
1036.06	1086.54
1037.12	1087.51
1038.18	1089.72
1039.23	1092.49
1040.29	1095.34
1041.35	1097.94
1042.4	1099.71
1043.46	1101.08
1044.51	1101.96
1045.57	1102.32
1046.62	1101.91
1047.68	1100.91
1048.73	1099.08
1049.79	1096.87
1050.84	1094.24
1051.89	1091.36
1052.95	1088.35
1054	1085.12
1055.05	1082.07
1056.1	1078.81
1057.16	1075.51
1058.21	1072.36
1059.26	1069.48
1060.31	1066.86
1061.36	1064.95
1062.41	1064.23
1063.46	1064.7
1064.51	1065.69
1065.56	1066.48
1066.61	1067.1
1067.66	1065.89
1068.71	1064.2
1069.76	1062.16
1070.81	1057.89
1071.85	1052.89
1072.9	1047.85
1073.95	1043.51
1075	1039.26
1076.04	1035.38
1077.09	1031.94
1078.14	1028.75
1079.18	1026.37
1080.23	1024.92
1081.27	1023.93
1082.32	1023.33
1083.36	1022.53
1084.41	1021.44
1085.45	1018.87
1086.5	1016.5
1087.54	1013.35
1088.59	1010.1
1089.63	1006.38
1090.67	1005.58
1091.71	1005.55
1092.76	1005.89
1093.8	1006.47
1094.84	1007.16
1095.88	1007.58
1096.92	1008.16
1097.97	1009.05
1099.01	1009.62
1100.05	1009.97
1101.09	1010.04
1102.13	1010.26
1103.17	1010.38
1104.21	1010.48
1105.25	1010.27
1106.28	1010.21
1107.32	1009.99
1108.36	1009.76
1109.4	1009.46
1110.44	1009.43
1111.47	1009.2
1112.51	1008.29
1113.55	1006.57
1114.59	1001.63
1115.62	995.28
1116.66	989.521
1117.69	985.075
1118.73	980.847
1119.77	976.869
1120.8	973.206
1121.84	969.842
1122.87	967.079
1123.9	964.796
1124.94	963.155
1125.97	962.247
1127	961.932
1128.04	962.493
1129.07	963.316
1130.1	964.468
1131.13	966.049
1132.17	968.301
1133.2	970.656
1134.23	973.965
1135.26	978.694
1136.29	983.979
1137.32	989.926
1138.35	995.835
1139.38	1001.58
1140.41	1005.82
1141.44	1009.94
1142.47	1013.12
1143.5	1016.02
1144.53	1019.35
1145.56	1024.7
1146.59	1031.81
1147.61	1039.18
1148.64	1046.25
1149.67	1052.56
1150.7	1057.98
1151.72	1062.67
1152.75	1066.66
1153.77	1068.82
1154.8	1069.84
1155.83	1075.5
1156.85	1066.69
1157.88	1052.34
1158.9	1035.48
1159.93	1017.92
1160.95	1001.44
1161.97	986.165
1163	972.245
1164.02	960.35
1165.04	950.488
1166.07	942.809
1167.09	938.212
1168.11	943.201
1169.13	943.125
1170.16	944.387
1171.18	947.188
1172.2	950.336
1173.22	952.738
1174.24	955.661
1175.26	950.785
1176.28	950.284
1177.3	955.382
1178.32	961.013
1179.34	965.612
1180.36	969.65
1181.38	972.846
1182.4	975.498
1183.41	977.437
1184.43	971.998
1185.45	966.885
1186.47	960.933
1187.48	954.262
1188.5	946.691
1189.52	938.493
1190.53	929.798
1191.55	920.256
1192.56	910.66
1193.58	901.463
1194.59	893.166
1195.61	886.014
1196.62	880.174
1197.64	875.749
1198.65	872.437
1199.67	870.015
1200.68	868.585
1201.69	867.942
1202.71	867.953
1203.72	868.449
1204.73	870.118
1205.74	872.268
1206.76	874.839
1207.77	877.519
1208.78	880.109
1209.79	882.401
1210.8	883.956
1211.81	885.153
1212.82	885.984
1213.83	886.652
1214.84	886.818
1215.85	886.811
1216.86	886.504
1217.87	885.875
1218.88	884.763
1219.88	882.778
1220.89	879.587
1221.9	876.893
1222.91	874.768
1223.92	873.917
1224.92	872.999
1225.93	871.598
1226.93	869.825
1227.94	867.405
1228.95	864.497
1229.95	860.933
1230.96	856.425
1231.96	851.063
1232.97	844.15
1233.97	834.372
1234.98	822.055
1235.98	811.617
1236.98	799.719
1237.99	795.072
1238.99	792.098
1239.99	792.297
1241	797.103
1242	799.728
1243	801.032
1244	801.112
1245	801.156
1246	800.54
1247.01	799.601
1248.01	798.159
1249.01	795.167
1250.01	792.034
1251.01	789.173
1252.01	786.515
1253	784.617
1254	783.142
1255	781.968
1256	781.411
1257	781.236
1258	781.622
1258.99	782.55
1259.99	784.159
1260.99	785.873
1261.99	787.429
1262.98	787.646
1263.98	787.093
1264.98	786.169
1265.97	784.671
1266.97	782.394
1267.96	778.917
1268.96	774.548
1269.95	769.979
1270.95	765.789
1271.94	762.708
1272.93	760.609
1273.93	759.466
1274.92	759.295
1275.91	760.508
1276.91	762.734
1277.9	766.518
1278.89	770.682
1279.88	774.934
1280.87	778.064
1281.87	780.481
1282.86	782.016
1283.85	782.577
1284.84	782.29
1285.83	780.591
1286.82	777.695
1287.81	773.165
1288.8	767.539
1289.79	761.575
1290.78	755.643
1291.76	751.092
1292.75	747.137
1293.74	744.407
1294.73	742.933
1295.72	742.734
1296.7	743.133
1297.69	743.625
1298.68	743.77
1299.66	743.171
1300.65	742.088
1301.64	740.671
1302.62	739.013
1303.61	737.168
1304.59	734.972
1305.58	732.567
1306.56	729.587
1307.55	726.33
1308.53	723.499
1309.51	721.37
1310.5	720.727
1311.48	721.418
1312.46	723.766
1313.45	727.31
1314.43	732.391
1315.41	738.049
1316.39	744.521
1317.38	750.137
1318.36	755.839
1319.34	762.323
1320.32	770.621
1321.3	780.012
1322.28	788.507
1323.26	796.249
1324.24	804.22
1325.22	806.778
1326.2	799.494
1327.18	789.284
1328.16	775.907
1329.13	757.931
1330.11	742.097
1331.09	727.759
1332.07	714.745
1333.04	704.45
1334.02	702.976
1335	698.203
1335.97	694.632
1336.95	692.717
1337.93	691.974
1338.9	692.722
1339.88	692.99
1340.85	693.045
1341.83	690.019
1342.8	689.253
1343.78	688.168
1344.75	687.574
1345.72	687.357
1346.7	687.031
1347.67	686.483
1348.65	685.707
1349.62	684.358
1350.59	681.888
1351.56	675.782
1352.53	672.083
1353.51	668.416
1354.48	666.382
1355.45	670.134
1356.42	667.649
1357.39	665.491
1358.36	663.146
1359.33	661.7
1360.3	660.921
1361.27	663.291
1362.24	685.425
1363.21	682.702
1364.18	680.493
1365.14	678.548
1366.11	648.35
1367.08	643.809
1368.05	649.247
1369.02	659.492
1369.98	655.901
1370.95	659.702
1371.92	650.115
1372.88	651.122
1373.85	645.911
1374.81	645.038
1375.78	644.78
1376.74	644.715
1377.71	644.268
1378.68	643.76
1379.64	643.252
1380.6	642.518
1381.57	641.927
1382.53	641.218
1383.49	640.37
1384.46	639.385
1385.42	638.144
1386.38	636.227
1387.34	633.357
1388.31	630.513
1389.27	627.24
1390.23	623.951
1391.19	620.649
1392.15	617.599
1393.11	614.827
1394.07	612.314
1395.03	610.009
1395.99	608.086
1396.95	606.541
1397.91	605.113
1398.87	603.783
1399.83	602.657
1400.79	601.657
1401.75	601.145
1402.7	600.909
1403.66	600.929
1404.62	601.359
1405.58	601.876
1406.53	602.413
1407.49	602.923
1408.45	603.359
1409.4	603.412
1410.36	603.171
1411.31	602.412
1412.27	601.991
1413.23	601.4
1414.18	600.743
1415.13	600.237
1416.09	598.778
1417.04	596.225
1418	593.693
1418.95	591.32
1419.9	589.354
1420.86	588.148
1421.81	587.67
1422.76	587.569
1423.71	588.138
1424.67	589.085
1425.62	590.425
1426.57	592.185
1427.52	594.222
1428.47	596.405
1429.42	598.915
1430.37	602.233
1431.32	605.563
1432.27	608.397
1433.22	610.093
1434.17	611.1
1435.12	611.317
1436.07	610.963
1437.02	609.989
1437.96	608.447
1438.91	606.438
1439.86	603.826
1440.81	600.605
1441.75	596.998
1442.7	593.163
1443.65	589.418
1444.59	586.044
1445.54	583.089
1446.49	580.296
1447.43	578.502
1448.38	577.388
1449.32	575.147
1450.27	572.851
1451.21	570.618
1452.15	568.592
1453.1	566.952
1454.04	565.676
1454.98	564.539
1455.93	564.485
1456.87	564.612
1457.81	564.661
1458.76	564.668
1459.7	564.121
1460.64	563.36
1461.58	562.467
1462.52	561.332
1463.46	560.046
1464.4	558.545
1465.34	556.833
1466.28	554.966
1467.22	552.701
1468.16	550.41
1469.1	548.146
1470.04	545.84
1470.98	544.134
1471.92	543.278
1472.86	542.707
1473.8	542.554
1474.73	542.617
1475.67	542.745
1476.61	542.039
1477.55	541.717
1478.48	541.565
1479.42	543.83
1480.36	546.643
1481.29	549.264
1482.23	551.152
1483.16	552.277
1484.1	552.87
1485.03	552.661
1485.97	551.631
1486.9	550.034
1487.84	547.957
1488.77	545.459
1489.7	542.531
1490.64	539.957
1491.57	537.203
1492.5	534.587
1493.44	532.448
1494.37	530.577
1495.3	528.969
1496.23	527.795
1497.16	527.368
1498.09	527.284
1499.02	527.539
1499.96	528.22
1500.89	529.247
1501.82	530.691
1502.75	532.552
1503.68	534.975
1504.61	537.539
1505.53	540.537
1506.46	544.053
1507.39	548.127
1508.32	553.056
1509.25	559.879
1510.18	567.455
1511.1	575.566
1512.03	584.045
1512.96	592.319
1513.88	600.771
1514.81	609.623
1515.74	619.165
1516.66	628.642
1517.59	637.785
1518.51	646.569
1519.44	653.865
1520.36	660.322
1521.29	665.664
1522.21	670.153
1523.14	673.008
1524.06	674.477
1524.98	674.975
1525.91	676.665
1526.83	673.164
1527.75	668.025
1528.68	661.117
1529.6	652.561
1530.52	643.061
1531.44	632.725
1532.36	622.066
1533.29	611.058
1534.21	599.864
1535.13	588.426
1536.05	576.785
1536.97	565.131
1537.89	553.409
1538.81	543.421
1539.73	536.42
1540.65	531.002
1541.56	527.106
1542.48	523.523
1543.4	520.991
1544.32	519.382
1545.24	520.425
1546.16	520.521
1547.07	519.012
1547.99	516.673
1548.91	514.856
1549.82	512.943
1550.74	510.669
1551.66	507.944
1552.57	504.177
1553.49	499.617
1554.4	494.296
1555.32	488.913
1556.23	484.322
1557.15	480.347
1558.06	476.84
1558.97	474.045
1559.89	471.424
1560.8	469.131
1561.71	467.18
1562.63	465.57
1563.54	463.58
1564.45	461.214
1565.36	457.878
1566.28	455.104
1567.19	455.504
1568.1	456.722
1569.01	455.762
1569.92	459.198
1570.83	463.823
1571.74	462.416
1572.65	461.259
1573.56	443.076
1574.47	442.239
1575.38	444.266
1576.29	447.494
1577.2	444.091
1578.11	444.302
1579.01	442.926
1579.92	443.11
1580.83	442.941
1581.74	442.212
1582.64	441.04
1583.55	439.452
1584.46	440.437
1585.36	439.176
1586.27	438.178
1587.18	437.366
1588.08	436.645
1588.99	435.732
1589.89	435.485
1590.8	435.703
1591.7	436.487
1592.61	437.019
1593.51	436.818
1594.41	436.406
1595.32	436.043
1596.22	435.958
1597.12	436.8
1598.03	437.445
1598.93	437.972
1599.83	438.362
1600.73	438.348
1601.64	437.909
1602.54	437.245
1603.44	436.507
1604.34	435.742
1605.24	435.087
1606.14	435.063
1607.04	435.444
1607.94	434.318
1608.84	432.836
1609.74	431.25
1610.64	429.554
1611.54	427.822
1612.44	426.046
1613.33	424.358
1614.23	422.734
1615.13	421.447
1616.03	420.3
1616.92	419.185
1617.82	418.249
1618.72	417.538
1619.61	416.926
1620.51	416.498
1621.41	416.141
1622.3	415.709
1623.2	415.201
1624.09	414.718
1624.99	414.332
1625.88	414.231
1626.78	414.699
1627.67	415.522
1628.57	416.352
1629.46	416.853
1630.35	416.982
1631.25	416.948
1632.14	417.066
1632.85	417.516
1633.78	417.081
1634.71	416.064
1635.64	414.369
1636.57	410.839
1637.5	410.644
1638.42	410.108
1639.35	409.573
1640.28	409.096
1641.21	408.422
1642.13	407.155
1643.06	405.796
1643.99	404.528
1644.91	403.28
1645.84	402.366
1646.77	401.755
1647.69	401.543
1648.62	401.977
1649.54	402.877
1650.47	404.42
1651.39	405.919
1652.32	406.179
1653.24	406.355
1654.17	406.338
1655.09	406.723
1656.01	406.888
1656.94	406.768
1657.86	406.17
1658.78	404.803
1659.71	403.08
1660.63	400.95
1661.55	398.467
1662.47	395.573
1663.4	392.96
1664.32	391.073
1665.24	389.022
1666.16	387.219
1667.08	386.454
1668	386.237
1668.92	386.519
1669.84	387.138
1670.76	387.911
1671.68	388.596
1672.6	389.282
1673.52	390.246
1674.44	390.758
1675.36	389.97
1676.28	388.151
1677.2	386.979
1678.12	385.696
1679.03	384.198
1679.95	382.004
1680.87	380.646
1681.79	379.368
1682.7	378.072
1683.62	376.031
1684.54	374.73
1685.45	374.456
1686.37	377.326
1687.29	375.333
1688.2	372.581
1689.12	369.512
1690.03	366.082
1690.95	363.153
1691.86	361.572
1692.78	360.547
1693.69	363.744
1694.61	365.509
1695.52	366.721
1696.43	367.312
1697.35	367.485
1698.26	366.802
1699.17	366.282
1700.09	365.517
1701	364.857
1701.91	364.176
1702.82	363.621
1703.74	363.021
1704.65	362.647
1705.56	362.551
1706.47	362.59
1707.38	362.39
1708.29	362.179
1709.2	362.416
1710.11	362.749
1711.02	363.021
1711.93	363.025
1712.84	362.613
1713.75	361.925
1714.66	361.05
1715.57	360.162
1716.48	359.45
1717.39	358.813
1718.3	358.232
1719.21	357.769
1720.11	357.436
1721.02	357.241
1721.93	357.123
1722.84	357.34
1723.74	357.369
1724.65	355.804
1725.56	353.967
1726.46	352.349
1727.37	350.4
1728.28	348.498
1729.18	346.65
1730.09	344.557
1730.99	343.23
1731.9	342.202
1732.8	341.288
1733.71	340.491
1734.61	339.773
1735.52	339.163
1736.42	338.489
1737.32	337.941
1738.23	337.471
1739.13	337.004
1740.03	336.56
1740.94	336.135
1741.84	335.642
1742.74	335.252
1743.64	334.797
1744.54	334.459
1745.45	334.133
1746.35	333.785
1747.25	333.406
1748.15	332.982
1749.05	332.337
1749.95	330.011
1750.85	329.14
1751.75	328.517
1752.65	327.33
1753.55	325.904
1754.45	324.581
1755.35	323.526
1756.25	323.301
1757.15	323.258
1758.05	323.02
1758.94	322.973
1759.84	323.003
1760.74	323.1
1761.64	323.488
1762.53	323.936
1763.43	323.662
1764.33	323.109
1765.23	322.262
1766.12	321.061
1767.02	319.373
1767.91	317.571
1768.81	316.41
1769.71	315.346
1770.6	314.426
1771.5	313.627
1772.39	312.911
1773.29	312.215
1774.18	311.696
1775.07	311.254
1775.97	310.935
1776.86	310.707
1777.76	310.477
1778.65	310.328
1779.54	310.279
1780.44	310.332
1781.33	308.634
1782.22	308.281
1783.11	308.094
1784.01	308.099
1784.9	308.144
1785.79	308.087
1786.68	308.084
1787.57	307.896
1788.46	307.694
1789.35	307.575
1790.24	307.394
1791.13	306.533
1792.02	305.179
1792.91	303.479
1793.8	301.372
1794.69	298.967
1795.58	296.437
1796.47	294.323
1797.36	292.561
1798.25	293.842
1799.14	292.755
