Acq. time (s)=	15
Accumulations=	2
Range (cm-¹)=	600...1800
Windows=	2
Autofocus=	Off
AutoExposure=	Off
Spike filter=	Multiple accum.
Delay time (s)=	1
Binning=	1
Readout mode=	Signal
DeNoise=	Standard
ICS correction=	Off
Dark correction=	Off
Inst. Process=	Off
Instrument=	XploRA
Detector=	Syncerity
Objective=	x20LWD
Grating=	1200 gr/mm
Filter=	25%
Laser (nm)=	785 
Slit (µm)=	100 
Hole (µm)=	300 
Laser pol=	None
Raman pol=	None
Output=	Camera
StageXY=	Marzhauser
StageZ=	
X (µm)=	1107
Y (µm)=	2232
Project=	
Sample=	
Site=	
Title=	To2
Remark=	
Date=	29.10.2022 05:02
Acquired=	29.10.2022 05:02:43
600.839	1071.23
602.009	1086.42
603.178	1098.64
604.347	1107.67
605.516	1116.27
606.684	1124.17
607.852	1131.4
609.02	1137.83
610.187	1143.82
611.355	1149.07
612.521	1159.65
613.688	1164.92
614.854	1168.9
616.02	1172.48
617.185	1174.7
618.351	1177.18
619.516	1180.05
620.681	1182.9
621.846	1185.78
623.009	1188.73
624.174	1191.82
625.337	1194.57
626.501	1197.93
627.664	1204.04
628.826	1212.2
629.988	1216.21
631.151	1219.41
632.313	1221.95
633.474	1224.24
634.635	1225.69
635.797	1224.2
636.958	1224.82
638.117	1226.21
639.278	1228.05
640.437	1229.68
641.597	1231.03
642.756	1236.16
643.915	1236.17
645.074	1235.64
646.233	1235.4
647.391	1235.4
648.548	1235.74
649.706	1236.07
650.863	1236.37
652.02	1236.81
653.176	1236.01
654.333	1231.96
655.489	1230.67
656.645	1231.1
657.8	1232.47
658.955	1234.93
660.11	1237.67
661.264	1240.44
662.419	1242.73
663.573	1244.53
664.727	1245.51
665.88	1246.1
667.033	1246.07
668.186	1246.36
669.338	1249.55
670.491	1253.04
671.643	1256.7
672.794	1260.14
673.945	1263.5
675.096	1266.78
676.247	1270.01
677.398	1273.1
678.548	1276.29
679.698	1279.46
680.847	1282.22
681.997	1284.39
683.146	1282.8
684.294	1283.46
685.443	1284.11
686.591	1284.7
687.739	1284.96
688.887	1285
690.034	1284.86
691.181	1284.74
692.328	1284.41
693.474	1283.84
694.62	1283.05
695.766	1282.18
696.911	1281.4
698.057	1280.56
699.202	1278.95
700.346	1275.06
701.49	1273.35
702.635	1272.44
703.779	1271.85
704.922	1274.53
706.065	1273.5
707.208	1271.86
708.351	1270.18
709.493	1268.22
710.635	1264.92
711.776	1263.36
712.918	1263.43
714.059	1262.2
715.2	1259.77
716.341	1256.72
717.481	1253.6
718.621	1250.5
719.761	1248.68
720.9	1246.95
722.04	1245.58
723.178	1242.72
724.317	1242.42
725.455	1241.3
726.594	1240.93
727.731	1241.49
728.868	1242.94
730.005	1245.45
731.142	1249.28
732.279	1254.61
733.415	1258.1
734.551	1261.46
735.686	1265.04
736.822	1268.55
737.957	1271.29
739.092	1273.32
740.226	1274.7
741.36	1275.33
742.495	1275.56
743.628	1274.95
744.762	1272.8
745.895	1269
747.027	1267.04
748.16	1263.91
749.292	1258.76
750.423	1252.31
751.555	1244.08
752.686	1234.93
753.817	1226.68
754.949	1218.57
756.079	1210.49
757.209	1201.88
758.339	1192.15
759.469	1183.91
760.597	1176.28
761.727	1171.77
762.856	1165.72
763.984	1159.6
765.112	1153.65
766.24	1148.44
767.367	1143.23
768.494	1138.35
769.622	1133.75
770.749	1129.63
771.874	1126.06
773.001	1122.84
774.127	1120.17
775.253	1117.64
776.377	1116.22
777.503	1114.96
778.627	1114.1
779.751	1113.28
780.876	1112.44
782	1111.42
783.123	1110.09
784.246	1108.68
785.37	1107.12
786.492	1105.41
787.614	1103.38
788.737	1101.38
789.858	1099.12
790.979	1096.67
792.101	1093.94
793.222	1090.87
794.342	1087.47
795.463	1083.76
796.583	1079.87
797.702	1076.04
798.822	1071.82
799.942	1067.81
801.06	1064.19
802.179	1060.99
803.297	1058.34
804.415	1056.17
805.533	1054.71
806.651	1054
807.768	1053.79
808.885	1053.89
810.001	1055.16
811.118	1054.91
812.233	1053.48
813.349	1052.83
814.464	1052.74
815.58	1053.81
816.695	1055.43
817.809	1053.31
818.924	1051.68
820.038	1052.64
821.152	1054.08
822.265	1056.66
823.378	1055.87
824.491	1053.9
825.604	1051.34
826.716	1048.3
827.828	1044.8
828.94	1040.73
830.051	1036.64
831.162	1033.19
832.273	1030.98
833.383	1029.6
834.494	1029.45
835.604	1030.73
836.714	1032.93
837.823	1034.57
838.932	1035.43
840.041	1035.38
841.15	1034.28
842.258	1032.84
843.366	1031.46
844.474	1029.08
845.581	1025.45
846.688	1021.63
847.795	1017.74
848.901	1014.12
850.008	1010.63
851.115	1007.52
852.22	1004.67
853.325	1002.03
854.43	999.743
855.536	997.684
856.64	996.009
857.745	994.966
858.848	994.102
859.952	992.831
861.055	989.835
862.158	986.479
863.261	982.502
864.364	978.333
865.466	974.145
866.568	970.162
867.67	969.883
868.771	962.807
869.873	957.934
870.973	954.045
872.074	951.323
873.174	949.546
874.274	948.502
875.374	947.972
876.473	947.813
877.572	948.378
878.671	947.976
879.77	944.932
880.868	942.576
881.966	938.719
883.064	936.477
884.161	934.506
885.258	933.229
886.356	932.108
887.452	931.487
888.548	931.08
889.645	931.897
890.74	933.378
891.836	935.533
892.931	936.93
894.025	938.158
895.12	938.607
896.214	937.844
897.308	934.904
898.402	931.267
899.495	927.229
900.588	924.059
901.681	921.926
902.774	920.718
903.866	920.942
904.958	922.416
906.05	925.083
907.142	928.793
908.233	934.492
909.324	936.842
910.414	937.908
911.504	938.209
912.594	937.636
913.684	935.971
914.774	933.172
915.863	929.227
916.952	923.275
918.041	916.194
919.129	909.714
920.217	903.028
921.305	897.208
922.392	892.375
923.48	889.004
924.567	886.484
925.653	884.511
926.74	882.71
927.825	881.324
928.911	880.101
929.997	878.921
931.082	877.628
932.166	875.881
933.252	873.804
934.336	871.513
935.42	868.656
936.504	865.295
937.587	861.224
938.671	855.906
939.753	850.7
940.836	845.813
941.919	842.338
943	839.646
944.082	837.756
945.163	836.76
946.245	836.379
947.326	836.621
948.406	837.279
949.487	838.07
950.567	839.281
951.647	840.501
952.727	841.576
953.805	842.541
954.885	842.783
955.964	841.589
957.042	837.474
958.12	837.003
959.198	836.416
960.276	834.894
961.352	832.445
962.43	830.163
963.507	828.083
964.583	826.573
965.659	825.306
966.735	824.307
967.81	823.642
968.885	823.215
969.961	822.995
971.036	823.107
972.11	823.47
973.184	824.15
974.258	825.132
975.332	825.207
976.405	821.405
977.478	823.367
978.551	825.427
979.624	830.752
980.696	836.952
981.767	838.377
982.839	839.713
983.911	841.206
984.982	841.921
986.052	842.185
987.123	842.01
988.193	841.193
989.263	840.54
990.333	839.807
991.403	836.609
992.471	832.159
993.54	827.583
994.608	823.876
995.677	821.159
996.745	826.336
997.812	823.722
998.88	820.677
999.947	817.826
1001.01	814.761
1002.08	811.515
1003.15	807.972
1004.21	804.178
1005.28	800.03
1006.34	795.456
1007.41	790.322
1008.47	784.874
1009.54	779.159
1010.6	773.204
1011.67	768.078
1012.73	762.096
1013.79	756.788
1014.86	753.697
1015.92	752.083
1016.98	750.595
1018.05	748.655
1019.11	746.499
1020.17	745.099
1021.23	744.15
1022.29	743.591
1023.35	742.615
1024.41	740.369
1025.47	736.436
1026.53	730.681
1027.59	723.622
1028.65	718.215
1029.71	713.653
1030.77	710.203
1031.83	707.953
1032.89	707.803
1033.95	709.208
1035	709.854
1036.06	710.899
1037.12	712.587
1038.18	715.054
1039.23	717.38
1040.29	720.477
1041.35	723.264
1042.4	725.657
1043.46	726.857
1044.51	726.794
1045.57	726.048
1046.62	722.96
1047.68	718.395
1048.73	714.569
1049.79	710.724
1050.84	707.75
1051.89	704.971
1052.95	702.239
1054	700.709
1055.05	699.375
1056.1	698.901
1057.16	700.105
1058.21	703.043
1059.26	702.414
1060.31	701.741
1061.36	701.749
1062.41	701.705
1063.46	701.551
1064.51	700.702
1065.56	699.064
1066.61	696.916
1067.66	694.548
1068.71	692.047
1069.76	689.606
1070.81	687.566
1071.85	685.502
1072.9	683.471
1073.95	681.514
1075	679.612
1076.04	677.912
1077.09	676.368
1078.14	672.837
1079.18	672.678
1080.23	673.146
1081.27	673.48
1082.32	668.901
1083.36	664.739
1084.41	661.256
1085.45	657.685
1086.5	655.067
1087.54	652.642
1088.59	651.532
1089.63	650.706
1090.67	650.836
1091.71	651.232
1092.76	651.187
1093.8	651.516
1094.84	650.355
1095.88	649.502
1096.92	649.267
1097.97	649.622
1099.01	650.554
1100.05	652.316
1101.09	654.493
1102.13	656.91
1103.17	658.678
1104.21	659.546
1105.25	660.52
1106.28	661.363
1107.32	662.144
1108.36	661.834
1109.4	659.55
1110.44	655.491
1111.47	650.728
1112.51	645.919
1113.55	641.597
1114.59	637.622
1115.62	634.34
1116.66	632.164
1117.69	630.478
1118.73	629.195
1119.77	628.28
1120.8	627.551
1121.84	627.072
1122.87	627.036
1123.9	627.135
1124.94	627.875
1125.97	628.817
1127	630.141
1128.04	631.682
1129.07	633.39
1130.1	635.297
1131.13	637.37
1132.17	639.517
1133.2	640.926
1134.23	643.05
1135.26	646.512
1136.29	651.335
1137.32	657.225
1138.35	664.377
1139.38	672.496
1140.41	674.918
1141.44	677.87
1142.47	673.312
1143.5	673.64
1144.53	666.954
1145.56	671.284
1146.59	677.966
1147.61	686.143
1148.64	695.32
1149.67	702.691
1150.7	707.31
1151.72	708.576
1152.75	709.378
1153.77	709.377
1154.8	705.615
1155.83	700.228
1156.85	693.574
1157.88	685.635
1158.9	676.807
1159.93	667.144
1160.95	656.577
1161.97	644.69
1163	634.61
1164.02	625.847
1165.04	618.697
1166.07	610.913
1167.09	603.981
1168.11	598.773
1169.13	596.13
1170.16	600.464
1171.18	602.87
1172.2	606.018
1173.22	609.923
1174.24	614.84
1175.26	620.771
1176.28	626.621
1177.3	630.861
1178.32	633.552
1179.34	635.935
1180.36	637.524
1181.38	638.404
1182.4	639.847
1183.41	639.956
1184.43	638.717
1185.45	636.196
1186.47	632.602
1187.48	627.98
1188.5	622.17
1189.52	615.617
1190.53	608.541
1191.55	601.593
1192.56	594.73
1193.58	588.567
1194.59	582.483
1195.61	577.15
1196.62	573.958
1197.64	572.08
1198.65	571.364
1199.67	571.833
1200.68	572.884
1201.69	574.943
1202.71	576.9
1203.72	578.364
1204.73	579.444
1205.74	580.236
1206.76	580.712
1207.77	580.516
1208.78	578.648
1209.79	576.991
1210.8	575.795
1211.81	575.156
1212.82	575.241
1213.83	575.386
1214.84	574.924
1215.85	574.661
1216.86	574.756
1217.87	575.026
1218.88	575.88
1219.88	576.636
1220.89	577.178
1221.9	576.943
1222.91	576.13
1223.92	574.43
1224.92	572.051
1225.93	569.251
1226.93	565.903
1227.94	562.199
1228.95	558.443
1229.95	554.123
1230.96	549.238
1231.96	543.614
1232.97	538.005
1233.97	533.148
1234.98	528.821
1235.98	525.098
1236.98	521.87
1237.99	519.25
1238.99	517.003
1239.99	515.055
1241	513.32
1242	512.44
1243	512.117
1244	510.702
1245	510.877
1246	510.097
1247.01	508.913
1248.01	508.951
1249.01	509.5
1250.01	509.728
1251.01	509.343
1252.01	510.28
1253	511.23
1254	512.005
1255	513.271
1256	514.016
1257	514.421
1258	514.526
1258.99	513.569
1259.99	511.35
1260.99	509.323
1261.99	507.328
1262.98	505.403
1263.98	503.631
1264.98	501.983
1265.97	499.566
1266.97	496.59
1267.96	493.55
1268.96	491.164
1269.95	489.363
1270.95	487.211
1271.94	486.452
1272.93	484.878
1273.93	484.195
1274.92	484.237
1275.91	485.622
1276.91	487.611
1277.9	489.577
1278.89	491.546
1279.88	493.278
1280.87	496.568
1281.87	499.307
1282.86	499.724
1283.85	499.535
1284.84	498.968
1285.83	498.216
1286.82	498.294
1287.81	496.43
1288.8	493.292
1289.79	488.193
1290.78	483.187
1291.76	477.819
1292.75	474.419
1293.74	471.298
1294.73	469.913
1295.72	469.274
1296.7	470.013
1297.69	469.049
1298.68	468.715
1299.66	468.595
1300.65	468.724
1301.64	468.415
1302.62	467.946
1303.61	466.999
1304.59	464.852
1305.58	462.852
1306.56	461.46
1307.55	460.311
1308.53	458.828
1309.51	455.42
1310.5	454.005
1311.48	453.212
1312.46	453.038
1313.45	454.353
1314.43	456.887
1315.41	460.867
1316.39	465.653
1317.38	471.906
1318.36	478.598
1319.34	484.461
1320.32	491.167
1321.3	495.622
1322.28	500.802
1323.26	505.426
1324.24	507.378
1325.22	506.939
1326.2	505.224
1327.18	501.295
1328.16	496.249
1329.13	489.442
1330.11	480.158
1331.09	472.545
1332.07	464.254
1333.04	456.174
1334.02	447.949
1335	439.549
1335.97	435.14
1336.95	431.857
1337.93	434.563
1338.9	435.629
1339.88	436.919
1340.85	437.551
1341.83	436.161
1342.8	434.738
1343.78	433.459
1344.75	431.664
1345.72	430.267
1346.7	428.137
1347.67	426.919
1348.65	425.581
1349.62	424.827
1350.59	424.186
1351.56	424.082
1352.53	424.061
1353.51	424.189
1354.48	424.215
1355.45	423.718
1356.42	421.26
1357.39	419.107
1358.36	415.259
1359.33	412.546
1360.3	409.905
1361.27	408.229
1362.24	406.923
1363.21	406.013
1364.18	405.064
1365.14	404.277
1366.11	402.68
1367.08	401.892
1368.05	400.792
1369.02	400.041
1369.98	399.259
1370.95	398.449
1371.92	397.407
1372.88	397.55
1373.85	397.343
1374.81	397.035
1375.78	397.371
1376.74	398.457
1377.71	400.245
1378.68	401.454
1379.64	402.705
1380.6	403.477
1381.57	403.98
1382.53	403.965
1383.49	404.201
1384.46	403.709
1385.42	403.141
1386.38	402.464
1387.34	401.701
1388.31	400.513
1389.27	398.399
1390.23	396.403
1391.19	394.351
1392.15	391.684
1393.11	389.181
1394.07	386.708
1395.03	384.796
1395.99	383.289
1396.95	382.182
1397.91	381.156
1398.87	380.788
1399.83	380.235
1400.79	379.606
1401.75	379.55
1402.7	380.155
1403.66	379.861
1404.62	379.19
1405.58	378.246
1406.53	377.48
1407.49	377.33
1408.45	376.298
1409.4	374.397
1410.36	373.108
1411.31	371.55
1412.27	371.05
1413.23	370.315
1414.18	369.241
1415.13	369.062
1416.09	369.024
1417.04	367.509
1418	366.472
1418.95	366.111
1419.9	366.712
1420.86	367.625
1421.81	368.617
1422.76	369.329
1423.71	370.298
1424.67	371.429
1425.62	373.063
1426.57	374.945
1427.52	376.653
1428.47	377.978
1429.42	378.914
1430.37	379.869
1431.32	381.255
1432.27	381.874
1433.22	381.993
1434.17	382.385
1435.12	383.131
1436.07	383.347
1437.02	383.038
1437.96	382.989
1438.91	382.583
1439.86	381.345
1440.81	378.827
1441.75	376.5
1442.7	374.236
1443.65	372.044
1444.59	369.95
1445.54	367.931
1446.49	366.115
1447.43	364.422
1448.38	362.907
1449.32	361.413
1450.27	357.616
1451.21	353.466
1452.15	350.647
1453.1	349.986
1454.04	355.629
1454.98	355.891
1455.93	354.355
1456.87	352.974
1457.81	351.322
1458.76	349.722
1459.7	348.264
1460.64	346.968
1461.58	337.671
1462.52	337.974
1463.46	342.335
1464.4	333.151
1465.34	330.97
1466.28	331.575
1467.22	333.705
1468.16	331.943
1469.1	331.915
1470.04	330.748
1470.98	330.602
1471.92	330.851
1472.86	331.234
1473.8	331.703
1474.73	333.03
1475.67	334.303
1476.61	335.722
1477.55	337.087
1478.48	339.212
1479.42	339.846
1480.36	340.274
1481.29	340.922
1482.23	341.652
1483.16	342.336
1484.1	342.89
1485.03	343.727
1485.97	344.419
1486.9	344.725
1487.84	343.352
1488.77	341.786
1489.7	338.804
1490.64	336.092
1491.57	333.672
1492.5	331.192
1493.44	328.296
1494.37	326.414
1495.3	325.029
1496.23	323.682
1497.16	323.464
1498.09	323.161
1499.02	323.197
1499.96	322.849
1500.89	322.843
1501.82	323.62
1502.75	325.219
1503.68	326.864
1504.61	328.491
1505.53	330.44
1506.46	332.622
1507.39	335.624
1508.32	339.24
1509.25	343.446
1510.18	348.285
1511.1	352.952
1512.03	358.445
1512.96	364.293
1513.88	371.356
1514.81	379.054
1515.74	386.337
1516.66	393.925
1517.59	400.684
1518.51	407.69
1519.44	414.79
1520.36	421.469
1521.29	427.785
1522.21	433.267
1523.14	436.692
1524.06	438.524
1524.98	438.458
1525.91	436.487
1526.83	433.699
1527.75	428.94
1528.68	423.107
1529.6	416.537
1530.52	409.105
1531.44	401.676
1532.36	393.855
1533.29	385.914
1534.21	377.477
1535.13	369.589
1536.05	361.366
1536.97	353.861
1537.89	347.315
1538.81	342.424
1539.73	337.907
1540.65	333.788
1541.56	329.82
1542.48	327.393
1543.4	326.218
1544.32	325.696
1545.24	325.41
1546.16	325.116
1547.07	324.823
1547.99	324.693
1548.91	324.66
1549.82	324.289
1550.74	323.109
1551.66	321.347
1552.57	319.1
1553.49	316.186
1554.4	312.492
1555.32	308.008
1556.23	303.977
1557.15	300.356
1558.06	296.889
1558.97	293.655
1559.89	291.551
1560.8	289.919
1561.71	288.008
1562.63	286.37
1563.54	284.946
1564.45	283.362
1565.36	281.753
1566.28	279.936
1567.19	278.104
1568.1	276.141
1569.01	274.464
1569.92	273.268
1570.83	271.98
1571.74	270.728
1572.65	269.366
1573.56	268.139
1574.47	267.26
1575.38	266.993
1576.29	266.674
1577.2	266.683
1578.11	266.584
1579.01	266.725
1579.92	266.827
1580.83	267.349
1581.74	266.998
1582.64	266.403
1583.55	266.431
1584.46	266.551
1585.36	266.796
1586.27	266.956
1587.18	266.775
1588.08	265.725
1588.99	265.548
1589.89	265.614
1590.8	265.646
1591.7	265.916
1592.61	266.229
1593.51	266.972
1594.41	267.312
1595.32	267.753
1596.22	268.409
1597.12	269.371
1598.03	270.87
1598.93	271.805
1599.83	272.351
1600.73	272.996
1601.64	273.534
1602.54	273.907
1603.44	274.172
1604.34	274.007
1605.24	273.556
1606.14	272.991
1607.04	272.429
1607.94	271.84
1608.84	271.352
1609.74	270.612
1610.64	269.986
1611.54	269.252
1612.44	268.552
1613.33	267.481
1614.23	266.529
1615.13	265.691
1616.03	265.163
1616.92	263.929
1617.82	262.928
1618.72	262.034
1619.61	261.206
1620.51	260.195
1621.41	259.199
1622.3	258.049
1623.2	257.024
1624.09	255.24
1624.99	253.001
1625.88	250.829
1626.78	249.077
1627.67	247.996
1628.57	247.367
1629.46	247.175
1630.35	247.331
1631.25	247.763
1632.14	248.577
1632.85	249.329
1633.78	250.286
1634.71	250.277
1635.64	250.228
1636.57	251.057
1637.5	251.89
1638.42	253.543
1639.35	254.523
1640.28	254.361
1641.21	253.905
1642.13	253.009
1643.06	251.394
1643.99	249.891
1644.91	249.41
1645.84	249.048
1646.77	248.317
1647.69	246.963
1648.62	246.17
1649.54	245.204
1650.47	243.589
1651.39	242.491
1652.32	241.252
1653.24	240.528
1654.17	240.455
1655.09	241.069
1656.01	242.161
1656.94	243.077
1657.86	243.787
1658.78	244.688
1659.71	246.036
1660.63	245.906
1661.55	245.608
1662.47	244.923
1663.4	244.394
1664.32	243.216
1665.24	241.437
1666.16	239.966
1667.08	239.416
1668	239.11
1668.92	238.666
1669.84	238.209
1670.76	238.703
1671.68	238.565
1672.6	238.213
1673.52	237.938
1674.44	237.35
1675.36	236.701
1676.28	235.163
1677.2	234.02
1678.12	232.968
1679.03	232.264
1679.95	232.153
1680.87	233.846
1681.79	234.65
1682.7	235.048
1683.62	235.285
1684.54	235.948
1685.45	236.57
1686.37	237.06
1687.29	236.875
1688.2	235.572
1689.12	234.871
1690.03	233.128
1690.95	232.31
1691.86	231.523
1692.78	229.817
1693.69	228.322
1694.61	226.819
1695.52	225.281
1696.43	224.077
1697.35	223.444
1698.26	222.498
1699.17	221.562
1700.09	220.849
1701	220.335
1701.91	220.412
1702.82	220.711
1703.74	220.507
1704.65	219.791
1705.56	219.359
1706.47	219.409
1707.38	218.875
1708.29	218.698
1709.2	218.912
1710.11	219.015
1711.02	219.055
1711.93	219.287
1712.84	219.424
1713.75	219.349
1714.66	218.74
1715.57	218.034
1716.48	216.818
1717.39	216.118
1718.3	215.59
1719.21	215.061
1720.11	213.794
1721.02	212.617
1721.93	210.637
1722.84	208.994
1723.74	207.398
1724.65	206.476
1725.56	205.923
1726.46	205.455
1727.37	204.681
1728.28	204.586
1729.18	204.698
1730.09	205.245
1730.99	205.759
1731.9	206.47
1732.8	206.895
1733.71	207.776
1734.61	208.697
1735.52	209.752
1736.42	209.97
1737.32	209.822
1738.23	209.076
1739.13	208.19
1740.03	206.969
1740.94	205.629
1741.84	203.228
1742.74	202.112
1743.64	201.949
1744.54	201.598
1745.45	200.193
1746.35	199.229
1747.25	198.538
1748.15	198.678
1749.05	198.902
1749.95	199.231
1750.85	199.203
1751.75	199.662
1752.65	200.047
1753.55	199.999
1754.45	199.479
1755.35	198.933
1756.25	198.016
1757.15	198.166
1758.05	199.409
1758.94	200.193
1759.84	199.867
1760.74	199.814
1761.64	199.759
1762.53	199.426
1763.43	198.864
1764.33	198.331
1765.23	198.482
1766.12	198.799
1767.02	199.015
1767.91	198.976
1768.81	198.773
1769.71	198.234
1770.6	198.22
1771.5	198.627
1772.39	198.845
1773.29	198.924
1774.18	199.208
1775.07	199.375
1775.97	198.816
1776.86	198.745
1777.76	198.187
1778.65	198.359
1779.54	198.306
1780.44	197.727
1781.33	196.68
1782.22	195.694
1783.11	194.336
1784.01	193.537
1784.9	192.921
1785.79	192.203
1786.68	191.427
1787.57	190.484
1788.46	189.401
1789.35	188.816
1790.24	187.568
1791.13	186.664
1792.02	185.621
1792.91	183.815
1793.8	182.298
1794.69	181.948
1795.58	181.844
1796.47	182.896
1797.36	183.404
1798.25	183.571
1799.14	183.587
