Acq. time (s)=	15
Accumulations=	2
Range (cm-¹)=	600...1800
Windows=	2
Autofocus=	Off
AutoExposure=	On
Spike filter=	Multiple accum.
Delay time (s)=	1
Binning=	1
Readout mode=	Signal
DeNoise=	Standard
ICS correction=	Off
Dark correction=	Off
Inst. Process=	Off
Instrument=	XploRA
Detector=	Syncerity
Objective=	x20LWD
Grating=	1200 gr/mm
Filter=	25%
Laser (nm)=	785 
Slit (µm)=	100 
Hole (µm)=	300 
Laser pol=	None
Raman pol=	None
Output=	Camera
StageXY=	Marzhauser
StageZ=	
X (µm)=	4452
Y (µm)=	1383.3
Project=	
Sample=	
Site=	
Title=	To11-T
Remark=	
Date=	15.10.2022 18:20
Acquired=	15.10.2022 18:20:18
600.787	2342.44
601.956	2360.17
603.126	2382.36
604.294	2402.31
605.463	2419.98
606.631	2439.52
607.8	2459.92
608.967	2480.18
610.135	2500.41
611.302	2519.5
612.468	2540.02
613.635	2560.19
614.802	2576.97
615.968	2592.35
617.133	2605.29
618.299	2616.85
619.464	2628.48
620.629	2638.28
621.793	2646.52
622.958	2652.87
624.121	2660.41
625.285	2666.15
626.448	2672.96
627.612	2679.22
628.774	2687.84
629.937	2698.37
631.099	2707.7
632.261	2717.45
633.423	2729.21
634.584	2739.93
635.745	2749.15
636.906	2758.89
638.066	2766.03
639.227	2774.17
640.386	2780.18
641.546	2784.97
642.705	2789.58
643.864	2791.46
645.023	2792.64
646.181	2795.01
647.339	2797.59
648.497	2799.19
649.655	2800.39
650.812	2802.42
651.969	2803.11
653.125	2804.4
654.282	2806.11
655.438	2809.73
656.593	2813.24
657.75	2816.39
658.905	2819.98
660.059	2824.93
661.214	2829.46
662.368	2833.91
663.522	2837.35
664.676	2840.1
665.83	2843.02
666.983	2846.7
668.136	2850.7
669.288	2857.38
670.441	2864.53
671.592	2872.15
672.744	2880.08
673.895	2887.9
675.046	2896.45
676.197	2906.14
677.348	2914.28
678.498	2922.02
679.648	2928.79
680.798	2933.66
681.947	2936.05
683.096	2939.35
684.245	2943.08
685.394	2946.41
686.542	2949.19
687.69	2950.21
688.837	2950.53
689.984	2950.4
691.132	2952.08
692.278	2951.96
693.425	2952.55
694.571	2954.74
695.717	2953.9
696.863	2954.85
698.008	2953.76
699.152	2951.32
700.298	2945.18
701.442	2936.35
702.586	2925.5
703.73	2915.25
704.873	2906.69
706.017	2898.32
707.16	2890.2
708.302	2884.66
709.445	2877.33
710.586	2870.74
711.729	2866.12
712.87	2863.37
714.012	2861.71
715.152	2861.28
716.293	2860.29
717.433	2860.06
718.573	2860.33
719.713	2862.35
720.853	2862.18
721.991	2859.83
723.131	2856.48
724.269	2856.44
725.408	2854.22
726.545	2850.07
727.683	2845.45
728.821	2845.54
729.958	2847.43
731.095	2853.54
732.231	2856.9
733.368	2866.82
734.503	2878.61
735.639	2894.03
736.775	2913.84
737.91	2935.1
739.045	2959.09
740.179	2982.29
741.313	3007.46
742.447	3017.73
743.581	3016.11
744.714	3004.13
745.847	2970.02
746.98	2936.02
748.113	2914.35
749.245	2893.49
750.377	2883.97
751.509	2866.49
752.64	2851.97
753.771	2835.93
754.902	2818.31
756.033	2798.34
757.163	2775.35
758.293	2758.01
759.423	2746.12
760.551	2734.96
761.681	2724.64
762.81	2714.14
763.938	2705.02
765.066	2696.96
766.194	2689.72
767.321	2683.16
768.449	2678.67
769.576	2672.65
770.703	2667.42
771.83	2661.38
772.955	2654.39
774.081	2648.85
775.207	2641.2
776.332	2630.1
777.457	2619.63
778.582	2609.62
779.707	2599.92
780.831	2590.37
781.954	2581
783.078	2572.11
784.201	2562.24
785.324	2552.21
786.447	2542.92
787.569	2533.83
788.691	2524.32
789.813	2516.1
790.935	2507.63
792.056	2501
793.177	2496.48
794.297	2492.54
795.418	2489.31
796.539	2485.37
797.658	2482.04
798.777	2477.64
799.897	2472.93
801.016	2468.44
802.134	2464.22
803.253	2459.24
804.371	2452.16
805.489	2448.92
806.606	2446.92
807.723	2443.99
808.84	2442.2
809.957	2440.28
811.073	2438.37
812.19	2436.23
813.305	2432.88
814.421	2430.83
815.536	2427.6
816.651	2423.81
817.766	2420.24
818.88	2418.35
819.994	2416.17
821.108	2411.7
822.221	2408.69
823.335	2405.4
824.448	2403.16
825.56	2402.99
826.673	2401.78
827.784	2400.76
828.897	2399.95
830.008	2398.41
831.119	2396.49
832.23	2394.68
833.341	2392.41
834.451	2388.06
835.561	2384.45
836.671	2380.72
837.78	2376.34
838.89	2371.98
839.998	2367.38
841.108	2363.09
842.216	2359.32
843.324	2355.78
844.431	2351.83
845.539	2343.16
846.646	2340.16
847.753	2337.05
848.859	2338.81
849.966	2339.05
851.071	2337.37
852.178	2332.68
853.283	2327.28
854.388	2321.31
855.494	2314.66
856.598	2303.78
857.703	2294.68
858.806	2285.79
859.91	2278.83
861.014	2270.63
862.116	2263.44
863.22	2255.25
864.322	2247.38
865.425	2239.43
866.527	2235.09
867.628	2227.56
868.73	2220.79
869.831	2214.23
870.932	2208.96
872.032	2204.24
873.133	2199.48
874.233	2195.9
875.333	2191.97
876.432	2190.21
877.532	2187.72
878.631	2184.57
879.729	2182.2
880.828	2179.4
881.926	2177.28
883.023	2174.54
884.121	2171.02
885.218	2168.74
886.315	2168.14
887.412	2167.37
888.508	2168.84
889.604	2169.74
890.699	2169.8
891.795	2170.41
892.89	2169.05
893.985	2165.94
895.08	2162.96
896.174	2161.26
897.268	2158.67
898.362	2157.81
899.456	2154.97
900.549	2152.79
901.642	2149.82
902.734	2145.88
903.827	2144.45
904.919	2144.91
906.011	2146.64
907.102	2152.45
908.193	2158.83
909.284	2165.49
910.375	2173.61
911.465	2179.05
912.555	2185.28
913.645	2197.59
914.734	2197.75
915.824	2194.46
916.913	2187.89
918.001	2178.66
919.09	2166.46
920.177	2151.83
921.266	2133.17
922.353	2112.01
923.44	2093.47
924.527	2075.66
925.614	2057.51
926.7	2040.51
927.786	2025.9
928.873	2012.21
929.958	2001.48
931.043	1996.83
932.128	1990.75
933.213	1984.73
934.297	1982.08
935.381	1978.39
936.465	1976.58
937.549	1975.91
938.632	1974.59
939.715	1973.35
940.798	1972.33
941.881	1971.2
942.962	1969.66
944.044	1968.19
945.125	1965.67
946.207	1962.1
947.288	1958.52
948.368	1956.78
949.449	1955.8
950.529	1954.48
951.61	1951.11
952.689	1947.54
953.769	1944.24
954.847	1941.22
955.926	1938.93
957.004	1934.75
958.082	1931.45
959.16	1928.31
960.238	1923.58
961.316	1919.26
962.392	1915.97
963.469	1913.8
964.546	1912.2
965.622	1908.95
966.698	1906.7
967.774	1905.4
968.849	1905.15
969.924	1907.09
970.998	1908.38
972.073	1911.72
973.148	1913.59
974.221	1918.4
975.295	1925.15
976.369	1933.1
977.441	1942.2
978.514	1950.79
979.587	1961.58
980.659	1970.76
981.731	1978.75
982.802	1988.09
983.874	1994.84
984.945	1999.69
986.016	2003.35
987.087	2004.67
988.157	2004.6
989.227	2003.84
990.296	2001.72
991.366	1998.34
992.435	1995.32
993.504	1993.13
994.573	1990.08
995.641	1986.36
996.709	1983.75
997.777	1981.18
998.844	1979.02
999.911	1974.95
1000.98	1971.01
1002.05	1965
1003.11	1957.15
1004.18	1946.04
1005.24	1932.76
1006.31	1917.76
1007.37	1900.88
1008.44	1883.8
1009.5	1865.15
1010.57	1849.34
1011.63	1835.12
1012.7	1821.83
1013.76	1809.03
1014.82	1798.08
1015.89	1787.12
1016.95	1777.7
1018.01	1768.67
1019.07	1761.82
1020.13	1757.06
1021.2	1751.93
1022.26	1746.9
1023.32	1742.21
1024.38	1737.25
1025.44	1732.92
1026.5	1728.8
1027.56	1724.1
1028.62	1720.63
1029.68	1715.76
1030.74	1709.77
1031.8	1706.48
1032.85	1703
1033.91	1699.18
1034.97	1697.16
1036.03	1694.59
1037.09	1693.47
1038.14	1694.67
1039.2	1695.7
1040.26	1698.15
1041.31	1699.77
1042.37	1701.71
1043.42	1704.72
1044.48	1708.66
1045.53	1710.35
1046.59	1711.3
1047.64	1712.02
1048.7	1711.3
1049.75	1707.63
1050.81	1700.12
1051.86	1691.47
1052.91	1684.24
1053.97	1676.9
1055.02	1670.21
1056.07	1663.27
1057.12	1654.36
1058.17	1648.17
1059.23	1642.38
1060.28	1637.62
1061.33	1635.05
1062.38	1632.27
1063.43	1633.64
1064.48	1635.47
1065.53	1636.52
1066.58	1637.06
1067.63	1636.38
1068.68	1634.66
1069.72	1632.44
1070.77	1631.11
1071.82	1629.59
1072.87	1628.77
1073.92	1626.59
1074.96	1621.64
1076.01	1608.73
1077.06	1593.34
1078.1	1579.38
1079.15	1569.88
1080.2	1562.98
1081.24	1558.11
1082.29	1562.09
1083.33	1562.42
1084.38	1571.05
1085.42	1570.37
1086.47	1563.92
1087.51	1559.97
1088.55	1556.06
1089.6	1551.5
1090.64	1548.04
1091.68	1545.12
1092.73	1542.63
1093.77	1531.2
1094.81	1525.35
1095.85	1524.79
1096.89	1524.84
1097.93	1527.79
1098.98	1533.48
1100.02	1537.92
1101.06	1541.35
1102.1	1541.23
1103.14	1538.18
1104.18	1537.43
1105.21	1538.78
1106.25	1539.73
1107.29	1542.07
1108.33	1544.06
1109.37	1546.05
1110.41	1547.06
1111.44	1548.55
1112.48	1546.67
1113.52	1542.66
1114.56	1537.45
1115.59	1530.36
1116.63	1520.72
1117.66	1507.49
1118.7	1498.5
1119.73	1491.57
1120.77	1484.65
1121.8	1479.51
1122.84	1475.65
1123.87	1473.59
1124.91	1474.02
1125.94	1486.68
1126.97	1489.43
1128.01	1493.93
1129.04	1501.31
1130.07	1508
1131.11	1515.76
1132.14	1518.12
1133.17	1528.16
1134.2	1538.55
1135.23	1551.38
1136.26	1563.33
1137.29	1580.9
1138.32	1597.98
1139.35	1614.16
1140.38	1634.13
1141.41	1651.45
1142.44	1667.32
1143.47	1680.55
1144.5	1687.07
1145.53	1690.45
1146.56	1697.12
1147.58	1692.71
1148.61	1693.36
1149.64	1702.36
1150.67	1729.69
1151.69	1782.27
1152.72	1832.25
1153.75	1881.06
1154.77	1916.12
1155.8	1909.42
1156.82	1917.6
1157.85	1891.36
1158.87	1847.35
1159.9	1798.83
1160.92	1737.11
1161.95	1667.36
1162.97	1604.96
1163.99	1553.29
1165.02	1537.49
1166.04	1519.82
1167.06	1506.93
1168.08	1507.71
1169.11	1470.85
1170.13	1469.11
1171.15	1471.71
1172.17	1478.83
1173.19	1486.91
1174.21	1497.06
1175.23	1511.7
1176.25	1525.82
1177.27	1540.71
1178.29	1555.61
1179.31	1570.49
1180.33	1584.14
1181.35	1598.27
1182.37	1609.73
1183.39	1610.88
1184.4	1612.78
1185.42	1615.65
1186.44	1614.4
1187.46	1609.39
1188.47	1599.1
1189.49	1582.4
1190.51	1564.78
1191.52	1542.81
1192.54	1517.41
1193.55	1492.5
1194.57	1467.23
1195.58	1441.48
1196.6	1419.31
1197.61	1399.39
1198.63	1384.2
1199.64	1374.6
1200.65	1384.8
1201.67	1381.85
1202.68	1381.55
1203.69	1381.76
1204.7	1383.89
1205.72	1388.09
1206.73	1393.11
1207.74	1397.97
1208.75	1402.89
1209.76	1404.34
1210.77	1407.82
1211.78	1411.02
1212.79	1414.35
1213.8	1413.79
1214.81	1414.18
1215.82	1413.07
1216.83	1410.28
1217.84	1407.44
1218.85	1406.41
1219.86	1405.23
1220.87	1403.89
1221.87	1402.13
1222.88	1399.41
1223.89	1397.1
1224.9	1393.22
1225.9	1389.49
1226.91	1383.44
1227.92	1376.25
1228.92	1370.41
1229.93	1362.62
1230.93	1353.27
1231.94	1342.67
1232.94	1331.54
1233.95	1321.49
1234.95	1308.54
1235.95	1295.24
1236.96	1282.82
1237.96	1272.87
1238.96	1263.19
1239.97	1252
1240.97	1241.37
1241.97	1230.83
1242.97	1222.64
1243.98	1217.51
1244.98	1211.84
1245.98	1208.1
1246.98	1205.32
1247.98	1204.26
1248.98	1203.09
1249.98	1201.31
1250.98	1200.75
1251.98	1200.32
1252.98	1201.22
1253.98	1202.11
1254.98	1201.2
1255.98	1201.48
1256.97	1200.94
1257.97	1201.4
1258.97	1200.77
1259.97	1201.21
1260.97	1201.79
1261.96	1202.63
1262.96	1202.48
1263.95	1201.12
1264.95	1197.69
1265.95	1194.14
1266.94	1188
1267.94	1182.42
1268.93	1175.47
1269.93	1171
1270.92	1167.12
1271.92	1164.11
1272.91	1162.11
1273.9	1153.76
1274.9	1155.05
1275.89	1158.56
1276.88	1164.77
1277.87	1171.68
1278.87	1179.89
1279.86	1189.89
1280.85	1198.82
1281.84	1207.54
1282.83	1214.27
1283.82	1220.64
1284.81	1226.47
1285.81	1227.67
1286.8	1224.35
1287.79	1209.82
1288.77	1200.18
1289.76	1190.12
1290.75	1178.62
1291.74	1166.92
1292.73	1155.45
1293.72	1144.77
1294.71	1134.81
1295.69	1127.22
1296.68	1129.04
1297.67	1126.28
1298.65	1123.33
1299.64	1119.61
1300.63	1123.4
1301.61	1122.55
1302.6	1122.15
1303.58	1122.14
1304.57	1121.99
1305.55	1120.13
1306.54	1117.17
1307.52	1113.68
1308.51	1109
1309.49	1104.81
1310.48	1100.93
1311.46	1096.8
1312.44	1094.42
1313.42	1091.02
1314.41	1090.48
1315.39	1090.47
1316.37	1094
1317.35	1099.27
1318.33	1106.46
1319.32	1112.83
1320.3	1131.77
1321.28	1155.56
1322.26	1181.91
1323.24	1210.36
1324.22	1235.34
1325.2	1255.45
1326.18	1269.29
1327.15	1278.22
1328.13	1252.4
1329.11	1228.26
1330.09	1200.67
1331.07	1169.44
1332.05	1138.31
1333.02	1112.96
1334	1087.06
1334.98	1069.5
1335.95	1067.32
1336.93	1070.21
1337.91	1071.49
1338.88	1074.59
1339.86	1068.38
1340.83	1068.28
1341.81	1058.24
1342.78	1053.76
1343.76	1053.34
1344.73	1051.67
1345.7	1048.98
1346.68	1047.02
1347.65	1044.86
1348.62	1042.99
1349.6	1041.02
1350.57	1038.85
1351.54	1035.85
1352.51	1033.89
1353.49	1031.49
1354.46	1031.28
1355.43	1027.64
1356.4	1025.55
1357.37	1018.8
1358.34	1010.73
1359.31	1001.06
1360.28	992.177
1361.25	982.07
1362.22	975.542
1363.19	970.823
1364.16	967.462
1365.12	965.284
1366.09	968.283
1367.06	968.859
1368.03	970.14
1369	972.694
1369.96	976.177
1370.93	979.987
1371.9	983.526
1372.86	985.795
1373.83	988.05
1374.79	988.76
1375.76	989.734
1376.73	989.219
1377.69	988.91
1378.66	987.019
1379.62	985.318
1380.58	982.799
1381.55	979.504
1382.51	976.528
1383.48	973.913
1384.44	971.103
1385.4	968.474
1386.36	966.078
1387.33	964.629
1388.29	963.506
1389.25	962.298
1390.21	961.097
1391.17	958.366
1392.13	955.189
1393.09	951.038
1394.06	948.098
1395.01	944.927
1395.97	941.555
1396.93	938.093
1397.89	933.984
1398.85	929.593
1399.81	924.259
1400.77	919.257
1401.73	914.291
1402.69	908.954
1403.64	904.156
1404.6	898.932
1405.56	895.519
1406.52	894.316
1407.47	892.666
1408.43	892.067
1409.39	891.858
1410.34	891.406
1411.3	891.204
1412.25	891.443
1413.21	893.434
1414.16	895.138
1415.12	896.874
1416.07	897.786
1417.03	897.98
1417.98	897.691
1418.93	896.537
1419.89	895.374
1420.84	894.187
1421.79	893.703
1422.74	892.857
1423.7	892.55
1424.65	892.718
1425.6	893.631
1426.55	894.209
1427.5	897.845
1428.45	901.872
1429.4	904.589
1430.35	908.25
1431.3	914.957
1432.25	922.271
1433.2	930.45
1434.15	938.35
1435.1	945.832
1436.05	952.612
1437	957.372
1437.95	956.774
1438.89	954.825
1439.84	946.633
1440.79	942.044
1441.74	936.059
1442.68	928.874
1443.63	921.017
1444.58	913.447
1445.52	905.363
1446.47	897.756
1447.41	892.03
1448.36	884.862
1449.3	879.364
1450.25	875.154
1451.19	872.379
1452.14	870.132
1453.08	869.024
1454.03	867.982
1454.97	866.036
1455.91	863.996
1456.85	863.893
1457.8	862.216
1458.74	859.494
1459.68	856.313
1460.62	853.044
1461.57	849.317
1462.51	845.637
1463.45	841.977
1464.39	838.056
1465.33	834.406
1466.27	830.813
1467.21	827.948
1468.15	826.407
1469.09	823.94
1470.03	821.329
1470.97	818.6
1471.9	817.027
1472.84	814.868
1473.78	813.507
1474.72	813.057
1475.66	813.819
1476.59	814.473
1477.53	816.507
1478.47	818.863
1479.4	821.66
1480.34	823.005
1481.28	825.094
1482.21	827.929
1483.15	830.407
1484.08	831.734
1485.02	832.608
1485.95	833.412
1486.89	833.192
1487.82	832.318
1488.76	831.086
1489.69	830.295
1490.62	830.058
1491.56	828.788
1492.49	827.457
1493.42	825.469
1494.35	824.378
1495.29	823.355
1496.22	822.643
1497.15	821.113
1498.08	819.161
1499.01	818.104
1499.94	817.211
1500.87	817.394
1501.8	817.257
1502.73	816.939
1503.66	818.498
1504.59	820.52
1505.52	824.07
1506.45	829.947
1507.38	836.189
1508.31	844.586
1509.23	853.56
1510.16	863.536
1511.09	873.489
1512.02	889.874
1512.94	907.146
1513.87	934.156
1514.8	961.327
1515.72	989.91
1516.65	1022.54
1517.58	1056.38
1518.5	1092.22
1519.43	1127.37
1520.35	1162.27
1521.28	1194.26
1522.2	1218.21
1523.12	1239.87
1524.05	1256.17
1524.97	1266.73
1525.9	1268.65
1526.82	1266.26
1527.74	1261.48
1528.66	1245.47
1529.59	1224.83
1530.51	1188.92
1531.43	1154.9
1532.35	1121.02
1533.27	1084.96
1534.19	1051.42
1535.11	1018.1
1536.04	989.007
1536.96	962.227
1537.88	934.418
1538.8	909.112
1539.71	881.513
1540.63	862.021
1541.55	848.668
1542.47	839.19
1543.39	836.482
1544.31	834.26
1545.23	834.309
1546.14	836.633
1547.06	838.766
1547.98	840.588
1548.89	842.576
1549.81	844.126
1550.73	845.869
1551.64	842.874
1552.56	836.465
1553.47	827.811
1554.39	821.569
1555.31	812.606
1556.22	804.13
1557.13	796.446
1558.05	789.021
1558.96	780.692
1559.88	774.09
1560.79	769.786
1561.7	764.571
1562.62	759.901
1563.53	756.1
1564.44	752.006
1565.35	748.659
1566.27	745.936
1567.18	744.137
1568.09	742.652
1569	742.112
1569.91	741.591
1570.82	740.41
1571.73	740.434
1572.64	741.197
1573.55	742.322
1574.46	745.394
1575.37	748.037
1576.28	750.456
1577.19	753.208
1578.1	755.86
1579	758.167
1579.91	759.926
1580.82	761.584
1581.73	763.57
1582.63	764.917
1583.54	765.842
1584.45	767.471
1585.35	768.605
1586.26	770.294
1587.17	771.518
1588.07	773.164
1588.98	774.882
1589.88	776.874
1590.79	778.032
1591.69	779.042
1592.6	780.864
1593.5	782.405
1594.4	784.864
1595.31	787.851
1596.21	791.806
1597.11	796.215
1598.02	801.353
1598.92	806.894
1599.82	812.099
1600.72	817.042
1601.63	821.721
1602.53	825.969
1603.43	830.004
1604.33	832.915
1605.23	834.726
1606.13	835.77
1607.03	835.767
1607.93	833.993
1608.83	832.087
1609.73	830.595
1610.63	829.15
1611.53	827.753
1612.43	826.856
1613.32	825.31
1614.22	824.368
1615.12	823.319
1616.02	822.034
1616.92	821.386
1617.81	821.114
1618.71	819.391
1619.61	818.075
1620.5	817.364
1621.4	817.548
1622.29	818.159
1623.19	818.85
1624.08	819.798
1624.98	820.813
1625.87	821.661
1626.77	822.726
1627.66	824.003
1628.56	824.714
1629.45	825.411
1630.34	826.844
1631.24	827.976
1632.13	827.484
1632.84	825.525
1633.77	821.244
1634.7	818.067
1635.63	814.994
1636.56	812.515
1637.49	809.859
1638.42	807.277
1639.34	804.936
1640.27	803.113
1641.2	801.634
1642.13	801.188
1643.05	800.056
1643.98	799.228
1644.91	799.045
1645.83	798.619
1646.76	798.025
1647.68	797.669
1648.61	796.552
1649.54	796.309
1650.46	795.105
1651.39	796.239
1652.31	797.572
1653.23	798.703
1654.16	799.327
1655.08	800.234
1656.01	800.467
1656.93	799.663
1657.85	799.086
1658.78	798.074
1659.7	797.27
1660.62	796.939
1661.54	796.003
1662.47	796.247
1663.39	795.095
1664.31	793.089
1665.23	791.382
1666.15	789.448
1667.07	787.677
1667.99	785.079
1668.92	781.695
1669.84	778.411
1670.76	775.464
1671.68	772.894
1672.6	771.028
1673.52	769.37
1674.43	767.086
1675.35	765.527
1676.27	764.896
1677.19	763.523
1678.11	762.164
1679.03	761.272
1679.95	759.777
1680.86	757.785
1681.78	755.537
1682.7	752.038
1683.61	751.345
1684.53	751.065
1685.45	750.958
1686.36	752.452
1687.28	752.466
1688.2	751.458
1689.11	749.744
1690.03	744.404
1690.94	741.585
1691.86	739.007
1692.77	735.986
1693.69	733.173
1694.6	727.452
1695.52	723.121
1696.43	718.562
1697.34	714.988
1698.26	712.477
1699.17	709.876
1700.08	709.195
1700.99	707.588
1701.91	706.92
1702.82	706.564
1703.73	707.063
1704.64	707.695
1705.55	708.244
1706.47	708.418
1707.38	708.577
1708.29	707.213
1709.2	705.259
1710.11	702.888
1711.02	700.037
1711.93	696.597
1712.84	694.363
1713.75	692.721
1714.66	691.065
1715.57	690.274
1716.48	689.221
1717.39	687.887
1718.29	686.833
1719.2	685.324
1720.11	685.091
1721.02	684.544
1721.93	684.05
1722.83	683.847
1723.74	682.946
1724.65	681.969
1725.55	680.459
1726.46	677.656
1727.37	674.608
1728.27	672.948
1729.18	673.443
1730.08	675.348
1730.99	675.256
1731.89	674.45
1732.8	673.692
1733.7	673.307
1734.61	672.997
1735.51	673.432
1736.42	674.333
1737.32	679.615
1738.22	680.761
1739.13	679.606
1740.03	675.866
1740.93	673.577
1741.83	671.066
1742.74	667.873
1743.64	664.526
1744.54	660.505
1745.44	656.584
1746.34	653.411
1747.24	650.182
1748.15	648.214
1749.05	646.689
1749.95	646.097
1750.85	645.404
1751.75	645.208
1752.65	643.776
1753.55	642.985
1754.45	641.298
1755.35	640.661
1756.25	641.038
1757.14	641.075
1758.04	640.91
1758.94	640.905
1759.84	641.232
1760.74	640.942
1761.63	639.954
1762.53	639.565
1763.43	639.137
1764.33	639.288
1765.22	640.505
1766.12	641.665
1767.02	642.321
1767.91	643.365
1768.81	644.732
1769.7	645.908
1770.6	645.297
1771.49	644.897
1772.39	644.85
1773.28	643.164
1774.18	640.315
1775.07	636.785
1775.97	633.018
1776.86	630.228
1777.75	627.715
1778.65	625.17
1779.54	622.018
1780.43	619.853
1781.33	618.975
1782.22	618.429
1783.11	618.432
1784	618.61
1784.89	617.825
1785.79	617.051
1786.68	616.675
1787.57	616.034
1788.46	615.149
1789.35	613.84
1790.24	611.443
1791.13	607.961
1792.02	604.133
1792.91	600.692
1793.8	597.378
1794.69	595.192
1795.58	593.916
1796.47	592.524
1797.36	590.648
1798.25	591.098
1799.13	595.1
