Acq. time (s)=	15
Accumulations=	2
Range (cm-¹)=	600...1800
Windows=	2
Autofocus=	Off
AutoExposure=	On
Spike filter=	Multiple accum.
Delay time (s)=	1
Binning=	1
Readout mode=	Signal
DeNoise=	Standard
ICS correction=	Off
Dark correction=	Off
Inst. Process=	Off
Instrument=	XploRA
Detector=	Syncerity
Objective=	x20LWD
Grating=	1200 gr/mm
Filter=	25%
Laser (nm)=	785 
Slit (µm)=	100 
Hole (µm)=	300 
Laser pol=	None
Raman pol=	None
Output=	Camera
StageXY=	Marzhauser
StageZ=	
X (µm)=	4316.7
Y (µm)=	1711.3
Project=	
Sample=	
Site=	
Title=	To11-T
Remark=	
Date=	15.10.2022 18:23
Acquired=	15.10.2022 18:23:13
600.787	424.504
601.956	435.812
603.126	443.262
604.294	451.518
605.463	457.051
606.631	461.691
607.8	465.666
608.967	468.369
610.135	470.967
611.302	475.098
612.468	480.724
613.635	486.755
614.802	492.651
615.968	498.423
617.133	503.906
618.299	509.373
619.464	514.778
620.629	520.117
621.793	525.354
622.958	530.454
624.121	535.663
625.285	540.875
626.448	546.072
627.612	550.989
628.774	554.775
629.937	558.447
631.099	562.17
632.261	566.366
633.423	570.178
634.584	573.772
635.745	576.975
636.906	579.844
638.066	582.257
639.227	584.367
640.386	586.217
641.546	587.18
642.705	587.837
643.864	588.224
645.023	589.006
646.181	589.846
647.339	590.767
648.497	591.911
649.655	593.275
650.812	594.884
651.969	596.556
653.125	598.641
654.282	601.161
655.438	604.101
656.593	608.051
657.75	613.007
658.905	618.336
660.059	623.936
661.214	629.173
662.368	634.702
663.522	639.755
664.676	644.205
665.83	647.864
666.983	651.145
668.136	653.995
669.288	656.48
670.441	658.487
671.592	660.416
672.744	662.203
673.895	662.421
675.046	662.586
676.197	663.153
677.348	664.12
678.498	665.609
679.648	667.722
680.798	670.433
681.947	673.392
683.096	676.621
684.245	679.935
685.394	683.171
686.542	684.391
687.69	687.099
688.837	688.917
689.984	689.723
691.132	690.182
692.278	690.706
693.425	691.222
694.571	691.545
695.717	691.544
696.863	689.097
698.008	687.298
699.152	686.147
700.298	686.114
701.442	686.439
702.586	686.942
703.73	687.161
704.873	687.378
706.017	687.859
707.16	688.886
708.302	689.873
709.445	690.698
710.586	690.511
711.729	690.054
712.87	689.362
714.012	689.443
715.152	689.5
716.293	689.433
717.433	689.218
718.573	688.48
719.713	687.262
720.853	686.13
721.991	685.339
723.131	685.794
724.269	687.261
725.408	688.726
726.545	689.561
727.683	690.111
728.821	689.859
729.958	689.453
731.095	689.786
732.231	690.399
733.368	691.319
734.503	692.482
735.639	693.876
736.775	695.567
737.91	697.594
739.045	699.77
740.179	701.852
741.313	704.17
742.447	705.849
743.581	707.338
744.714	707.943
745.847	707.368
746.98	705.651
748.113	702.546
749.245	698.33
750.377	694.572
751.509	690.757
752.64	686.926
753.771	683.132
754.902	679.208
756.033	674.937
757.163	670.57
758.293	667.889
759.423	664.193
760.551	660.996
761.681	658.323
762.81	655.951
763.938	653.699
765.066	651.832
766.194	650.228
767.321	648.707
768.449	647.146
769.576	645.972
770.703	643.714
771.83	641.229
772.955	638.802
774.081	636.3
775.207	633.895
776.332	631.795
777.457	629.878
778.582	628.014
779.707	626.255
780.831	624.652
781.954	623.342
783.078	622.15
784.201	621.195
785.324	620.217
786.447	619.439
787.569	618.778
788.691	618.165
789.813	617.568
790.935	616.981
792.056	616.246
793.177	615.244
794.297	613.985
795.418	611.992
796.539	609.51
797.658	606.746
798.777	603.648
799.897	600.231
801.016	597.076
802.134	594.419
803.253	592.278
804.371	590.891
805.489	590.073
806.606	589.476
807.723	589.747
808.84	590.321
809.957	590.992
811.073	590.516
812.19	589.844
813.305	588.798
814.421	588.284
815.536	587.892
816.651	587.7
817.766	587.539
818.88	587.393
819.994	587.17
821.108	586.96
822.221	586.719
823.335	586.469
824.448	586.223
825.56	585.843
826.673	585.527
827.784	585.077
828.897	584.499
830.008	583.766
831.119	582.703
832.23	580.67
833.341	578.513
834.451	576.302
835.561	574.011
836.671	571.971
837.78	570.495
838.89	569.669
839.998	569.261
841.108	569.301
842.216	569.946
843.324	571.39
844.431	573.039
845.539	574.579
846.646	574.752
847.753	574.182
848.859	572.188
849.966	569.997
851.071	568.337
852.178	566.583
853.283	564.77
854.388	562.932
855.494	560.959
856.598	558.933
857.703	556.759
858.806	554.506
859.91	552.022
861.014	549.497
862.116	547.107
863.22	545.008
864.322	544.713
865.425	544.364
866.527	544.044
867.628	542.758
868.73	540.988
869.831	539.159
870.932	538.152
872.032	537.578
873.133	537.233
874.233	536.965
875.333	536.495
876.432	536.32
877.532	536.395
878.631	536.287
879.729	535.471
880.828	533.907
881.926	532.311
883.023	530.722
884.121	529.811
885.218	528.974
886.315	528.052
887.412	526.874
888.508	525.098
889.604	522.305
890.699	519.677
891.795	517.154
892.89	515.185
893.985	513.92
895.08	512.741
896.174	511.762
897.268	511.051
898.362	510.504
899.456	510.278
900.549	510.338
901.642	510.668
902.734	511.305
903.827	512.228
904.919	513.44
906.011	514.888
907.102	516.606
908.193	518.557
909.284	521.05
910.375	523.59
911.465	526.086
912.555	528.369
913.645	528.857
914.734	528.851
915.824	528.3
916.913	527.183
918.001	525.564
919.09	523.418
920.177	521.05
921.266	518.608
922.353	515.839
923.44	513.112
924.527	509.257
925.614	505.003
926.7	500.607
927.786	496.227
928.873	492.454
929.958	488.878
931.043	485.438
932.128	482.106
933.213	479.092
934.297	476.571
935.381	474.716
936.465	473.75
937.549	473.866
938.632	474.703
939.715	475.935
940.798	478.149
941.881	480.277
942.962	482.189
944.044	483.101
945.125	483.353
946.207	482.733
947.288	481.328
948.368	478.501
949.449	477.477
950.529	476.288
951.61	475.232
952.689	474.125
953.769	473.258
954.847	472.306
955.926	471.269
957.004	469.882
958.082	468.434
959.16	467.088
960.238	465.71
961.316	464.603
962.392	464.138
963.469	464.181
964.546	464.364
965.622	464.588
966.698	464.643
967.774	463.561
968.849	462.399
969.924	461.368
970.998	460.397
972.073	460.337
973.148	460.864
974.221	461.72
975.295	462.709
976.369	463.798
977.441	464.699
978.514	465.512
979.587	466.719
980.659	467.926
981.731	469.031
982.802	469.974
983.874	470.768
984.945	471.318
986.016	471.571
987.087	471.093
988.157	470.514
989.227	469.597
990.296	468.412
991.366	467.351
992.435	466.427
993.504	466.212
994.573	466.02
995.641	465.838
996.709	465.838
997.777	465.819
998.844	465.972
999.911	466.635
1000.98	467.162
1002.05	466.917
1003.11	465.074
1004.18	462.675
1005.24	459.658
1006.31	456.315
1007.37	452.657
1008.44	448.728
1009.5	444.104
1010.57	439.244
1011.63	434.471
1012.7	430.638
1013.76	427.061
1014.82	423.716
1015.89	421.376
1016.95	420.26
1018.01	420.244
1019.07	420.307
1020.13	420.123
1021.2	420.88
1022.26	420.973
1023.32	419.781
1024.38	417.079
1025.44	413.393
1026.5	409.147
1027.56	405.016
1028.62	401.514
1029.68	399.15
1030.74	398.005
1031.8	398.837
1032.85	400.194
1033.91	401.786
1034.97	402.193
1036.03	402.674
1037.09	403.038
1038.14	404.363
1039.2	405.902
1040.26	407.548
1041.31	409.182
1042.37	410.783
1043.42	411.768
1044.48	412.876
1045.53	414.072
1046.59	414.976
1047.64	415.553
1048.7	415.698
1049.75	415.23
1050.81	413.656
1051.86	411.787
1052.91	409.301
1053.97	405.475
1055.02	401.689
1056.07	399.229
1057.12	397.689
1058.17	396.871
1059.23	396.662
1060.28	396.767
1061.33	397.036
1062.38	396.646
1063.43	396.212
1064.48	396.193
1065.53	398.055
1066.58	400.608
1067.63	401.984
1068.68	402.794
1069.72	402.041
1070.77	400.445
1071.82	398.471
1072.87	396.713
1073.92	394.868
1074.96	393.001
1076.01	391.241
1077.06	389.522
1078.1	387.875
1079.15	385.888
1080.2	383.794
1081.24	381.242
1082.29	378.914
1083.33	379.344
1084.38	378.079
1085.42	376.786
1086.47	375.6
1087.51	374.772
1088.55	373.991
1089.6	373.525
1090.64	373.169
1091.68	372.915
1092.73	372.834
1093.77	372.78
1094.81	372.651
1095.85	372.699
1096.89	372.629
1097.93	372.621
1098.98	372.565
1100.02	372.532
1101.06	372.405
1102.1	372.158
1103.14	371.856
1104.18	371.415
1105.21	370.942
1106.25	370.254
1107.29	369.45
1108.33	368.693
1109.37	367.878
1110.41	367.016
1111.44	366.094
1112.48	365.132
1113.52	364.115
1114.56	363.136
1115.59	361.953
1116.63	360.728
1117.66	359.556
1118.7	358.442
1119.73	357.581
1120.77	358.319
1121.8	359.188
1122.84	359.222
1123.87	358.658
1124.91	358.271
1125.94	358.053
1126.97	358.151
1128.01	358.628
1129.04	359.379
1130.07	360.431
1131.11	361.789
1132.14	363.48
1133.17	365.512
1134.2	367.872
1135.23	370.726
1136.26	373.856
1137.29	379.292
1138.32	383.227
1139.35	386.597
1140.38	388.962
1141.41	390.307
1142.44	390.422
1143.47	389.375
1144.5	388.15
1145.53	387.735
1146.56	388.163
1147.58	389.405
1148.61	391.099
1149.64	393.136
1150.67	395.709
1151.69	397.891
1152.72	402.398
1153.75	405.132
1154.77	406.896
1155.8	407.466
1156.82	406.832
1157.85	405.02
1158.87	401.748
1159.9	397.439
1160.92	392.111
1161.95	385.769
1162.97	379.696
1163.99	374.157
1165.02	369.365
1166.04	365.004
1167.06	361.295
1168.08	358.295
1169.11	355.972
1170.13	354.469
1171.15	353.671
1172.17	353.844
1173.19	354.702
1174.21	355.976
1175.23	357.362
1176.25	359.256
1177.27	361.363
1178.29	363.45
1179.31	365.68
1180.33	367.865
1181.35	370.179
1182.37	371.955
1183.39	373.269
1184.4	374.027
1185.42	374.114
1186.44	373.509
1187.46	372
1188.47	369.662
1189.49	366.508
1190.51	362.919
1191.52	358.659
1192.54	353.989
1193.55	349.468
1194.57	344.915
1195.58	340.555
1196.6	336.546
1197.61	332.847
1198.63	329.099
1199.64	326.166
1200.65	324.381
1201.67	323.534
1202.68	323.483
1203.69	324.172
1204.7	325.568
1205.72	327.416
1206.73	329.562
1207.74	331.822
1208.75	334.419
1209.76	338.071
1210.77	341.292
1211.78	342.819
1212.79	343.38
1213.8	342.982
1214.81	340.102
1215.82	337.567
1216.83	335.729
1217.84	333.891
1218.85	332.243
1219.86	330.278
1220.87	328.225
1221.87	326.024
1222.88	323.895
1223.89	322.113
1224.9	320.753
1225.9	320.207
1226.91	319.638
1227.92	318.93
1228.92	318.254
1229.93	317.537
1230.93	316.587
1231.94	315.326
1232.94	313.752
1233.95	311.993
1234.95	310.103
1235.95	308.52
1236.96	306.986
1237.96	304.843
1238.96	301.777
1239.97	298.396
1240.97	295.09
1241.97	292.179
1242.97	289.835
1243.98	288.099
1244.98	287.153
1245.98	286.768
1246.98	287.428
1247.98	288.788
1248.98	290.321
1249.98	291.953
1250.98	293.007
1251.98	293.8
1252.98	294.319
1253.98	294.701
1254.98	294.814
1255.98	294.768
1256.97	294.331
1257.97	293.523
1258.97	293.039
1259.97	292.733
1260.97	292.008
1261.96	290.938
1262.96	290.084
1263.95	289.659
1264.95	289.377
1265.95	289.074
1266.94	288.698
1267.94	288.095
1268.93	286.917
1269.93	285.43
1270.92	283.448
1271.92	281.524
1272.91	279.855
1273.9	278.802
1274.9	278.179
1275.89	278.07
1276.88	278.63
1277.87	279.625
1278.87	280.954
1279.86	282.544
1280.85	284.248
1281.84	286.119
1282.83	287.57
1283.82	289.237
1284.81	290.687
1285.81	291.722
1286.8	291.88
1287.79	291.206
1288.77	290.035
1289.76	288.596
1290.75	286.724
1291.74	284.729
1292.73	282.481
1293.72	280.266
1294.71	278.179
1295.69	276.356
1296.68	274.832
1297.67	273.482
1298.65	272.249
1299.64	271.213
1300.63	270.222
1301.61	269.931
1302.6	269.773
1303.58	269.732
1304.57	269.721
1305.55	269.75
1306.54	269.685
1307.52	269.131
1308.51	268.569
1309.49	267.905
1310.48	267.186
1311.46	266.283
1312.44	265.304
1313.42	264.301
1314.41	263.425
1315.39	263.13
1316.37	262.598
1317.35	262.356
1318.33	262.824
1319.32	264.066
1320.3	266.903
1321.28	270.558
1322.26	275.188
1323.24	280.688
1324.22	287.372
1325.2	294.767
1326.18	300.229
1327.15	290.985
1328.13	284.448
1329.11	287.044
1330.09	286.954
1331.07	282.147
1332.05	277.928
1333.02	272.48
1334	267.188
1334.98	262.345
1335.95	258.682
1336.93	255.699
1337.91	253.692
1338.88	252.294
1339.86	250.724
1340.83	248.917
1341.81	247.178
1342.78	244.087
1343.76	243.592
1344.73	243.725
1345.7	244.318
1346.68	244.94
1347.65	245.906
1348.62	247.339
1349.6	248.956
1350.57	250.444
1351.54	249.915
1352.51	249.665
1353.49	248.415
1354.46	249.451
1355.43	250.312
1356.4	247.733
1357.37	242.842
1358.34	239.528
1359.31	236.345
1360.28	233.659
1361.25	231.426
1362.22	229.444
1363.19	227.945
1364.16	227.611
1365.12	229.493
1366.09	231.609
1367.06	234.729
1368.03	236.69
1369	238.089
1369.96	239.238
1370.93	239.942
1371.9	240.649
1372.86	240.736
1373.83	240.821
1374.79	241.067
1375.76	240.143
1376.73	239.008
1377.69	237.754
1378.66	236.422
1379.62	235.269
1380.58	234.179
1381.55	233.219
1382.51	232.415
1383.48	232.063
1384.44	231.685
1385.4	231.444
1386.36	231.196
1387.33	230.895
1388.29	229.94
1389.25	228.593
1390.21	227.271
1391.17	226.009
1392.13	224.748
1393.09	223.627
1394.06	222.632
1395.01	221.62
1395.97	220.69
1396.93	220.192
1397.89	219.743
1398.85	219.363
1399.81	219.075
1400.77	218.827
1401.73	218.645
1402.69	218.401
1403.64	218.217
1404.6	218.015
1405.56	217.695
1406.52	217.175
1407.47	216.521
1408.43	216.002
1409.39	215.417
1410.34	214.882
1411.3	214.375
1412.25	213.899
1413.21	213.488
1414.16	213.147
1415.12	212.885
1416.07	212.841
1417.03	213.087
1417.98	213.585
1418.93	214.146
1419.89	214.769
1420.84	215.349
1421.79	215.647
1422.74	215.181
1423.7	214.927
1424.65	214.632
1425.6	214.206
1426.55	214.374
1427.5	214.901
1428.45	215.497
1429.4	216.31
1430.35	217.074
1431.3	217.662
1432.25	218.218
1433.2	218.746
1434.15	219.203
1435.1	219.657
1436.05	219.891
1437	219.993
1437.95	219.925
1438.89	219.699
1439.84	219.31
1440.79	218.764
1441.74	218.095
1442.68	217.36
1443.63	216.564
1444.58	215.697
1445.52	214.786
1446.47	214.154
1447.41	213.099
1448.36	212.024
1449.3	211.016
1450.25	210.023
1451.19	209.154
1452.14	208.39
1453.08	207.708
1454.03	207.537
1454.97	207.083
1455.91	206.782
1456.85	206.464
1457.8	206.162
1458.74	205.936
1459.68	205.797
1460.62	205.79
1461.57	205.944
1462.51	206.352
1463.45	207.13
1464.39	209.588
1465.33	209.497
1466.27	208.27
1467.21	206.256
1468.15	203.596
1469.09	200.288
1470.03	196.584
1470.97	193.383
1471.9	192.159
1472.84	192.156
1473.78	191.777
1474.72	191.674
1475.66	191.856
1476.59	192.373
1477.53	193.018
1478.47	193.831
1479.4	194.77
1480.34	195.842
1481.28	197.102
1482.21	198.397
1483.15	200.023
1484.08	201.016
1485.02	200.729
1485.95	201.207
1486.89	201.99
1487.82	203.104
1488.76	203.904
1489.69	203.528
1490.62	202.244
1491.56	200.745
1492.49	198.951
1493.42	196.911
1494.35	194.774
1495.29	192.789
1496.22	190.726
1497.15	188.87
1498.08	187.318
1499.01	186.15
1499.94	185.654
1500.87	185.704
1501.8	186.394
1502.73	187.66
1503.66	189.259
1504.59	191.126
1505.52	193.127
1506.45	194.975
1507.38	196.549
1508.31	197.928
1509.23	199.291
1510.16	201.305
1511.09	203.521
1512.02	206.409
1512.94	209.956
1513.87	214.064
1514.8	218.367
1515.72	223.17
1516.65	228.519
1517.58	234.337
1518.5	240.553
1519.43	247.02
1520.35	253.353
1521.28	259.045
1522.2	263.848
1523.12	267.812
1524.05	270.657
1524.97	272.26
1525.9	272.271
1526.82	270.904
1527.74	268.141
1528.66	264.19
1529.59	259.283
1530.51	253.468
1531.43	247.225
1532.35	240.791
1533.27	234.356
1534.19	227.687
1535.11	221.307
1536.04	215.456
1536.96	210.655
1537.88	206.426
1538.8	202.47
1539.71	199.014
1540.63	196.198
1541.55	193.901
1542.47	191.774
1543.39	190.72
1544.31	189.924
1545.23	189.744
1546.14	189.627
1547.06	189.432
1547.98	189.221
1548.89	188.513
1549.81	187.676
1550.73	186.651
1551.64	185.39
1552.56	183.631
1553.47	181.766
1554.39	179.57
1555.31	177.394
1556.22	174.705
1557.13	172.018
1558.05	169.294
1558.96	166.556
1559.88	164.095
1560.79	161.836
1561.7	159.782
1562.62	157.994
1563.53	156.58
1564.44	155.175
1565.35	153.875
1566.27	152.794
1567.18	151.99
1568.09	151.271
1569	150.663
1569.91	150.094
1570.82	149.51
1571.73	148.905
1572.64	148.144
1573.55	147.514
1574.46	146.593
1575.37	145.85
1576.28	145.193
1577.19	144.421
1578.1	144.951
1579	146.54
1579.91	147.221
1580.82	147.137
1581.73	147.05
1582.63	147.046
1583.54	146.975
1584.45	146.868
1585.35	146.761
1586.26	146.527
1587.17	146.269
1588.07	146.193
1588.98	145.987
1589.88	145.627
1590.79	145.294
1591.69	145.221
1592.6	145.439
1593.5	145.826
1594.4	146.303
1595.31	146.998
1596.21	147.621
1597.11	148.083
1598.02	148.576
1598.92	149.182
1599.82	149.491
1600.72	149.523
1601.63	149.48
1602.53	149.355
1603.43	149.209
1604.33	149.272
1605.23	149.296
1606.13	149.021
1607.03	148.711
1607.93	148.442
1608.83	148.094
1609.73	147.25
1610.63	146.317
1611.53	145.182
1612.43	143.984
1613.32	143.304
1614.22	142.931
1615.12	142.686
1616.02	142.392
1616.92	142.154
1617.81	141.207
1618.71	140.109
1619.61	140.071
1620.5	140.16
1621.4	140.097
1622.29	140.039
1623.19	140.057
1624.08	139.635
1624.98	139.056
1625.87	138.526
1626.77	138.083
1627.66	137.65
1628.56	137.219
1629.45	136.738
1630.34	136.698
1631.24	137.333
1632.13	136.817
1632.84	136.36
1633.77	135.581
1634.7	134.976
1635.63	134.28
1636.56	133.915
1637.49	134.088
1638.42	133.729
1639.34	133.323
1640.27	132.692
1641.2	131.489
1642.13	130.582
1643.05	130.255
1643.98	129.668
1644.91	129.519
1645.83	129.491
1646.76	129.151
1647.68	129.424
1648.61	129.534
1649.54	129.813
1650.46	129.925
1651.39	130.21
1652.31	130.682
1653.23	131.091
1654.16	131.657
1655.08	132.007
1656.01	132.126
1656.93	131.94
1657.85	131.833
1658.78	131.729
1659.7	131.156
1660.62	131.024
1661.54	130.7
1662.47	129.988
1663.39	129.503
1664.31	129.52
1665.23	129.503
1666.15	129.471
1667.07	129.725
1667.99	130.403
1668.92	131.012
1669.84	131.805
1670.76	132.851
1671.68	133.451
1672.6	133.546
1673.52	133.721
1674.43	133.592
1675.35	133.297
1676.27	133.298
1677.19	133.24
1678.11	132.989
1679.03	132.834
1679.95	131.705
1680.86	130.597
1681.78	129.551
1682.7	128.712
1683.61	127.768
1684.53	126.481
1685.45	124.931
1686.36	123.756
1687.28	122.8
1688.2	122.23
1689.11	121.7
1690.03	121.512
1690.94	121.341
1691.86	121.213
1692.77	121.64
1693.69	121.525
1694.6	122.346
1695.52	121.945
1696.43	121.306
1697.34	120.435
1698.26	119.16
1699.17	118.087
1700.08	117.36
1700.99	117.267
1701.91	117.378
1702.82	117.921
1703.73	118.917
1704.64	119.187
1705.55	119.279
1706.47	119.619
1707.38	119.757
1708.29	119.934
1709.2	119.441
1710.11	118.563
1711.02	117.956
1711.93	117.062
1712.84	116.234
1713.75	115.733
1714.66	115.789
1715.57	115.706
1716.48	115.56
1717.39	115.17
1718.29	115.035
1719.2	114.849
1720.11	115.248
1721.02	115.16
1721.93	114.62
1722.83	114.14
1723.74	113.462
1724.65	112.832
1725.55	112.309
1726.46	111.976
1727.37	111.562
1728.27	111.747
1729.18	111.589
1730.08	111.017
1730.99	110.394
1731.89	109.806
1732.8	109.506
1733.7	108.961
1734.61	108.709
1735.51	108.797
1736.42	109.276
1737.32	109.44
1738.22	110.046
1739.13	109.986
1740.03	109.803
1740.93	109.761
1741.83	110.189
1742.74	109.86
1743.64	108.04
1744.54	107.746
1745.44	107.757
1746.34	108.06
1747.24	108.23
1748.15	108.067
1749.05	107.968
1749.95	108.134
1750.85	108.745
1751.75	108.817
1752.65	108.895
1753.55	108.548
1754.45	107.929
1755.35	105.178
1756.25	104.476
1757.14	104.122
1758.04	104.047
1758.94	104.292
1759.84	104.761
1760.74	106.014
1761.63	107.555
1762.53	108.139
1763.43	108.704
1764.33	108.645
1765.22	107.908
1766.12	107.11
1767.02	106.973
1767.91	107.422
1768.81	107.62
1769.7	107.677
1770.6	106.716
1771.49	105.48
1772.39	103.977
1773.28	103.419
1774.18	102.675
1775.07	102.545
1775.97	102.232
1776.86	102.379
1777.75	102.732
1778.65	103.061
1779.54	103.331
1780.43	103.451
1781.33	103.786
1782.22	103.756
1783.11	102.921
1784	102.888
1784.89	103.284
1785.79	103.47
1786.68	103.06
1787.57	102.34
1788.46	101.515
1789.35	100.474
1790.24	99.6836
1791.13	99.2808
1792.02	98.6522
1792.91	98.4606
1793.8	98.2333
1794.69	99.0001
1795.58	99.6521
1796.47	100.178
1797.36	101.304
1798.25	103.404
1799.13	106.469
