Acq. time (s)=	15
Accumulations=	2
Range (cm-¹)=	600...1800
Windows=	2
Autofocus=	Off
AutoExposure=	Off
Spike filter=	Multiple accum.
Delay time (s)=	1
Binning=	1
Readout mode=	Signal
DeNoise=	Standard
ICS correction=	Off
Dark correction=	Off
Inst. Process=	Off
Instrument=	XploRA
Detector=	Syncerity
Objective=	x20LWD
Grating=	1200 gr/mm
Filter=	25%
Laser (nm)=	785 
Slit (µm)=	100 
Hole (µm)=	300 
Laser pol=	None
Raman pol=	None
Output=	Camera
StageXY=	Marzhauser
StageZ=	
X (µm)=	6647.2
Y (µm)=	1593.5
Project=	
Sample=	
Site=	
Title=	To8
Remark=	
Date=	28.10.2022 21:30
Acquired=	28.10.2022 21:30:52
600.839	724.835
602.009	739.905
603.178	753.638
604.347	764.534
605.516	772.164
606.684	780.121
607.852	785.894
609.02	790.779
610.187	795.262
611.355	799.51
612.521	803.319
613.688	806.712
614.854	809.949
616.02	814.016
617.185	817.047
618.351	818.843
619.516	821.414
620.681	818.6
621.846	822.068
623.009	825.835
624.174	832.539
625.337	836.867
626.501	840.605
627.664	844.514
628.826	848.109
629.988	849.42
631.151	853.201
632.313	857.092
633.474	863.355
634.635	865.172
635.797	867.499
636.958	867.845
638.117	869.493
639.278	871.427
640.437	872.608
641.597	873.639
642.756	874.196
643.915	874.454
645.074	875.04
646.233	875.691
647.391	876.334
648.548	876.923
649.706	877.164
650.863	879.225
652.02	881.411
653.176	883.029
654.333	885.277
655.489	887.61
656.645	889.919
657.8	891.447
658.955	892.991
660.11	893.707
661.264	894.438
662.419	895.298
663.573	895.169
664.727	896.562
665.88	898.798
667.033	901.575
668.186	903.268
669.338	904.177
670.491	907.195
671.643	910.202
672.794	914.302
673.945	918.639
675.096	922.388
676.247	925.835
677.398	930.197
678.548	934.508
679.698	938.186
680.847	941.496
681.997	944.356
683.146	947.589
684.294	950.518
685.443	951.709
686.591	952.044
687.739	951.172
688.887	949.928
690.034	948.498
691.181	948.271
692.328	947.731
693.474	948.417
694.62	949.815
695.766	949.22
696.911	948.092
698.057	947.666
699.202	946.974
700.346	946.082
701.49	945.001
702.635	944.397
703.779	943.5
704.922	943.526
706.065	942.094
707.208	940.812
708.351	938.127
709.493	935.124
710.635	932.473
711.776	930.579
712.918	930.326
714.059	930.273
715.2	929.896
716.341	929.476
717.481	927.933
718.621	926.356
719.761	926.263
720.9	926.737
722.04	925.981
723.178	927.194
724.317	927.652
725.455	928.338
726.594	927.669
727.731	927.525
728.868	926.558
730.005	925.048
731.142	925.325
732.279	924.05
733.415	926.789
734.551	932.037
735.686	939.942
736.822	948.927
737.957	958.787
739.092	969.237
740.226	977.447
741.36	981.012
742.495	979.912
743.628	974.956
744.762	950.452
745.895	939.294
747.027	934.559
748.16	932.34
749.292	933.459
750.423	935.784
751.555	935.294
752.686	931.108
753.817	920.929
754.949	913.108
756.079	908.88
757.209	903.798
758.339	899.399
759.469	894.487
760.597	889.985
761.727	885.419
762.856	881.637
763.984	877.596
765.112	874.491
766.24	870.562
767.367	868.204
768.494	865.3
769.622	862.008
770.749	859.195
771.874	856.033
773.001	851.861
774.127	848.66
775.253	843.065
776.377	845.12
777.503	847.798
778.627	849.831
779.751	850.768
780.876	850.916
782	850.684
783.123	849.598
784.246	847.976
785.37	845.531
786.492	839.66
787.614	834.693
788.737	830.402
789.858	829.207
790.979	826.125
792.101	822.577
793.222	819.068
794.342	815.505
795.463	812.47
796.583	808.943
797.702	805.262
798.822	801.748
799.942	799.565
801.06	797.937
802.179	796.127
803.297	794.217
804.415	794.095
805.533	795.014
806.651	795.572
807.768	796.319
808.885	798.273
810.001	798.98
811.118	800.05
812.233	800.763
813.349	800.701
814.464	800.692
815.58	799.119
816.695	796.498
817.809	794.186
818.924	791.568
820.038	790.635
821.152	789.874
822.265	789.685
823.378	789.344
824.491	787.473
825.604	786.301
826.716	785.854
827.828	784.853
828.94	783.553
830.051	782.762
831.162	781.808
832.273	780.062
833.383	777.141
834.494	774.316
835.604	771.897
836.714	770.282
837.823	768.988
838.932	767.944
840.041	768.673
841.15	769.577
842.258	770.669
843.366	772.151
844.474	772.566
845.581	772.59
846.688	771.531
847.795	770.201
848.901	768.619
850.008	767.144
851.115	764.662
852.22	761.4
853.325	758.246
854.43	754.568
855.536	751.719
856.64	748.052
857.745	745.373
858.848	743.718
859.952	742.714
861.055	741.006
862.158	740.29
863.261	739.008
864.364	737.798
865.466	736.94
866.568	735.807
867.67	733.155
868.771	731.406
869.873	729.771
870.973	726.208
872.074	723.013
873.174	719.759
874.274	715.475
875.374	713.03
876.473	710.295
877.572	708.099
878.671	706.626
879.77	705.602
880.868	703.971
881.966	703.343
883.064	702.851
884.161	702.358
885.258	702.734
886.356	702.796
887.452	704.124
888.548	706.397
889.645	708.652
890.74	712.388
891.836	713.684
892.931	713.301
894.025	713.171
895.12	713.153
896.214	713.928
897.308	714.269
898.402	713.687
899.495	712.921
900.588	712.852
901.681	711.545
902.774	709.847
903.866	708.32
904.958	707.699
906.05	707.033
907.142	705.153
908.233	704.865
909.324	705.067
910.414	704.408
911.504	703.549
912.594	704.437
913.684	703.496
914.774	702.683
915.863	703.04
916.952	702.648
918.041	701.268
919.129	698.584
920.217	695.709
921.305	691.929
922.392	689.252
923.48	684.79
924.567	680.588
925.653	675.229
926.74	670.187
927.825	664.728
928.911	660.308
929.997	656.861
931.082	653.26
932.166	649.876
933.252	647.28
934.336	646.11
935.42	642.114
936.504	638.725
937.587	638.454
938.671	638.218
939.753	638.794
940.836	639.83
941.919	640.058
943	640.851
944.082	639.505
945.163	637.417
946.245	631.892
947.326	631.505
948.406	638.866
949.487	642.161
950.567	638.743
951.647	639.08
952.727	639.597
953.805	639.278
954.885	638.974
955.964	638.811
957.042	638.81
958.12	638.401
959.198	637.809
960.276	636.265
961.352	634.543
962.43	632.587
963.507	631.105
964.583	629.63
965.659	627.911
966.735	626.281
967.81	625.141
968.885	623.566
969.961	622.091
971.036	621.01
972.11	620.463
973.184	621.455
974.258	622.622
975.332	623.695
976.405	624.777
977.478	626.681
978.551	630.257
979.624	632.999
980.696	634.797
981.767	636.558
982.839	639.066
983.911	640.647
984.982	642.197
986.052	644.048
987.123	645.272
988.193	646.141
989.263	646.568
990.333	646.378
991.403	646.047
992.471	644.331
993.54	643.671
994.608	642.64
995.677	640.833
996.745	638.282
997.812	635.401
998.88	632.326
999.947	629.185
1001.01	624.561
1002.08	620.899
1003.15	617.958
1004.21	613.461
1005.28	610.399
1006.34	604.246
1007.41	597.987
1008.47	591.833
1009.54	585.777
1010.6	581.088
1011.67	576.643
1012.73	573.288
1013.79	571.535
1014.86	570.968
1015.92	571.438
1016.98	572.234
1018.05	571.887
1019.11	569.805
1020.17	568.986
1021.23	568.75
1022.29	568.111
1023.35	567.133
1024.41	566.509
1025.47	564.458
1026.53	563.437
1027.59	562.854
1028.65	561.89
1029.71	561.172
1030.77	559.169
1031.83	558.131
1032.89	556.939
1033.95	556.382
1035	555.843
1036.06	554.823
1037.12	554.181
1038.18	554.325
1039.23	554.629
1040.29	554.695
1041.35	555.203
1042.4	555.4
1043.46	555.807
1044.51	554.924
1045.57	553.212
1046.62	551.291
1047.68	549.787
1048.73	548.163
1049.79	546.211
1050.84	543.474
1051.89	540.982
1052.95	539.421
1054	537.833
1055.05	536.733
1056.1	535.88
1057.16	535.025
1058.21	534.912
1059.26	535.12
1060.31	534.869
1061.36	535.401
1062.41	536.159
1063.46	537.409
1064.51	537.98
1065.56	538.461
1066.61	540.324
1067.66	540.65
1068.71	539.982
1069.76	538.49
1070.81	536.311
1071.85	534.99
1072.9	533.53
1073.95	530.86
1075	528.19
1076.04	526.026
1077.09	523.117
1078.14	519.983
1079.18	516.548
1080.23	512.771
1081.27	510.015
1082.32	508.121
1083.36	506.71
1084.41	505.698
1085.45	504.787
1086.5	504.418
1087.54	504.702
1088.59	505.294
1089.63	506.365
1090.67	507.961
1091.71	509.144
1092.76	510.291
1093.8	510.915
1094.84	510.946
1095.88	511.104
1096.92	510.359
1097.97	509.218
1099.01	508.514
1100.05	508.141
1101.09	507.773
1102.13	507.686
1103.17	507.679
1104.21	507.264
1105.25	507.153
1106.28	507.042
1107.32	506.656
1108.36	507.235
1109.4	506.357
1110.44	505.675
1111.47	503.239
1112.51	500.367
1113.55	498.443
1114.59	496.026
1115.62	493.571
1116.66	490.792
1117.69	488.336
1118.73	486.484
1119.77	485.05
1120.8	482.8
1121.84	481.794
1122.87	481.743
1123.9	483.353
1124.94	484.515
1125.97	486.469
1127	488.029
1128.04	490.048
1129.07	494.405
1130.1	494.054
1131.13	493.187
1132.17	492.213
1133.2	491.049
1134.23	490.28
1135.26	492.343
1136.29	495.861
1137.32	500.002
1138.35	507.272
1139.38	527.122
1140.41	540.621
1141.44	552.115
1142.47	541.736
1143.5	531.497
1144.53	518.976
1145.56	528.985
1146.59	531.319
1147.61	539.488
1148.64	546.058
1149.67	548.472
1150.7	553.68
1151.72	556.735
1152.75	559.084
1153.77	559.751
1154.8	558.207
1155.83	556.847
1156.85	551.36
1157.88	544.12
1158.9	536.138
1159.93	527.535
1160.95	519.035
1161.97	509.981
1163	500.53
1164.02	491.355
1165.04	483.508
1166.07	476.505
1167.09	470.609
1168.11	467.637
1169.13	466.348
1170.16	469.703
1171.18	471.752
1172.2	474.398
1173.22	477.579
1174.24	481.076
1175.26	484.207
1176.28	488.941
1177.3	493.973
1178.32	498.561
1179.34	503.378
1180.36	506.398
1181.38	509.44
1182.4	510.439
1183.41	511.588
1184.43	510.646
1185.45	508.475
1186.47	504.554
1187.48	499.932
1188.5	495.315
1189.52	490.579
1190.53	483.894
1191.55	476.633
1192.56	469.798
1193.58	463.251
1194.59	457.007
1195.61	451.351
1196.62	450.548
1197.64	451.168
1198.65	461.934
1199.67	453.086
1200.68	442.827
1201.69	444.858
1202.71	445.2
1203.72	444.029
1204.73	442.853
1205.74	442.298
1206.76	442.327
1207.77	442.029
1208.78	442.27
1209.79	442.807
1210.8	443.641
1211.81	444.71
1212.82	445.152
1213.83	445.547
1214.84	446.38
1215.85	446.74
1216.86	447.138
1217.87	448.537
1218.88	450.135
1219.88	450.47
1220.89	450.436
1221.9	450.049
1222.91	449.868
1223.92	448.717
1224.92	447.266
1225.93	446.54
1226.93	445.9
1227.94	444.347
1228.95	443.288
1229.95	441.577
1230.96	439.144
1231.96	435.502
1232.97	431.855
1233.97	429.389
1234.98	426.133
1235.98	423.083
1236.98	420.699
1237.99	418.436
1238.99	416.235
1239.99	413.557
1241	410.616
1242	407.55
1243	405.337
1244	402.825
1245	401.348
1246	400.263
1247.01	399.691
1248.01	399.151
1249.01	398.76
1250.01	398.435
1251.01	398.266
1252.01	398.327
1253	397.96
1254	398.683
1255	398.927
1256	399.223
1257	399.398
1258	397.87
1258.99	397.371
1259.99	396.712
1260.99	396.161
1261.99	396.016
1262.98	395.791
1263.98	394.568
1264.98	392.663
1265.97	391.158
1266.97	390.835
1267.96	389.549
1268.96	388.096
1269.95	387.241
1270.95	386.616
1271.94	385.292
1272.93	384.307
1273.93	383.985
1274.92	383.76
1275.91	384.063
1276.91	385.011
1277.9	385.581
1278.89	385.206
1279.88	385.049
1280.87	384.89
1281.87	384.825
1282.86	385.987
1283.85	386.676
1284.84	386.711
1285.83	386.929
1286.82	385.833
1287.81	384.047
1288.8	382.334
1289.79	380.916
1290.78	378.322
1291.76	374.566
1292.75	371.596
1293.74	369.252
1294.73	366.082
1295.72	363.496
1296.7	361.914
1297.69	360.437
1298.68	358.817
1299.66	358.456
1300.65	359.42
1301.64	361.346
1302.62	363.717
1303.61	365.338
1304.59	366.938
1305.58	368.214
1306.56	369.979
1307.55	371.44
1308.53	372.052
1309.51	372.074
1310.5	370.683
1311.48	370.1
1312.46	369.475
1313.45	370.144
1314.43	369.463
1315.41	370.422
1316.39	371.969
1317.38	374.453
1318.36	378.221
1319.34	383.329
1320.32	387.337
1321.3	391.606
1322.28	395.766
1323.26	398.911
1324.24	399.716
1325.22	397.891
1326.2	396.474
1327.18	393.948
1328.16	389.014
1329.13	383.345
1330.11	377.004
1331.09	371.708
1332.07	366.808
1333.04	362.076
1334.02	357.054
1335	352.357
1335.97	349.204
1336.95	346.864
1337.93	345.308
1338.9	343.972
1339.88	342.883
1340.85	342.179
1341.83	341.925
1342.8	342.475
1343.78	342.509
1344.75	342.834
1345.72	343.1
1346.7	343.562
1347.67	343.43
1348.65	343.57
1349.62	343.221
1350.59	343.341
1351.56	343.5
1352.53	342.588
1353.51	341.548
1354.48	340.814
1355.45	339.076
1356.42	336.97
1357.39	334.92
1358.36	332.281
1359.33	329.847
1360.3	327.672
1361.27	325.722
1362.24	323.278
1363.21	322.058
1364.18	320.541
1365.14	319.283
1366.11	319.153
1367.08	318.917
1368.05	319.567
1369.02	320.959
1369.98	324.773
1370.95	326.267
1371.92	326.203
1372.88	326.537
1373.85	326.006
1374.81	325.061
1375.78	323.56
1376.74	322.444
1377.71	320.446
1378.68	318.598
1379.64	317.306
1380.6	316.199
1381.57	315.225
1382.53	314.698
1383.49	314.944
1384.46	315.744
1385.42	319.699
1386.38	320.417
1387.34	320.764
1388.31	319.858
1389.27	319.416
1390.23	317.595
1391.19	314.935
1392.15	312.886
1393.11	310.364
1394.07	307.796
1395.03	305.693
1395.99	303.997
1396.95	302.612
1397.91	300.835
1398.87	299.625
1399.83	299.359
1400.79	299.202
1401.75	300.475
1402.7	301.916
1403.66	302.37
1404.62	303.119
1405.58	302.88
1406.53	302.334
1407.49	301.418
1408.45	301.108
1409.4	300.475
1410.36	299.754
1411.31	299.157
1412.27	298.136
1413.23	296.35
1414.18	294.779
1415.13	293.563
1416.09	292.81
1417.04	293.035
1418	293.358
1418.95	294.375
1419.9	295.49
1420.86	296.422
1421.81	297.074
1422.76	297.985
1423.71	298.548
1424.67	298.879
1425.62	298.98
1426.57	299.193
1427.52	299.935
1428.47	299.712
1429.42	299.488
1430.37	299.687
1431.32	300.287
1432.27	300.645
1433.22	301.537
1434.17	301.905
1435.12	302.501
1436.07	303.621
1437.02	304.23
1437.96	304.491
1438.91	304.442
1439.86	304.251
1440.81	303.7
1441.75	303.027
1442.7	301.712
1443.65	300.309
1444.59	298.712
1445.54	297.129
1446.49	296.207
1447.43	294.138
1448.38	292.171
1449.32	290.427
1450.27	288.101
1451.21	287.207
1452.15	286.553
1453.1	284.615
1454.04	282.413
1454.98	280.724
1455.93	279.324
1456.87	278.504
1457.81	278.551
1458.76	279.157
1459.7	279.314
1460.64	280.014
1461.58	280.22
1462.52	279.862
1463.46	278.687
1464.4	277.979
1465.34	276.721
1466.28	275.09
1467.22	273.626
1468.16	273.038
1469.1	272.447
1470.04	271.305
1470.98	269.79
1471.92	268.824
1472.86	268.044
1473.8	267.517
1474.73	266.938
1475.67	266.867
1476.61	267.705
1477.55	268.288
1478.48	269.315
1479.42	271.052
1480.36	272.438
1481.29	273.669
1482.23	275.277
1483.16	276.691
1484.1	277.402
1485.03	278.295
1485.97	278.681
1486.9	278.46
1487.84	277.804
1488.77	276.644
1489.7	275.56
1490.64	274.704
1491.57	273.758
1492.5	272.912
1493.44	272.573
1494.37	272.962
1495.3	273.544
1496.23	273.29
1497.16	272.731
1498.09	272.601
1499.02	272.192
1499.96	271.854
1500.89	270.87
1501.82	269.059
1502.75	267.986
1503.68	266.418
1504.61	265.992
1505.53	266.241
1506.46	267.246
1507.39	268.241
1508.32	270.338
1509.25	272.826
1510.18	276.399
1511.1	281.341
1512.03	286.766
1512.96	292.435
1513.88	298.801
1514.81	306.075
1515.74	314.068
1516.66	322.579
1517.59	330.748
1518.51	338.695
1519.44	345.81
1520.36	351.778
1521.29	353.113
1522.21	357.033
1523.14	359.879
1524.06	361.472
1524.98	362.474
1525.91	361.647
1526.83	357.845
1527.75	354.3
1528.68	349.738
1529.6	344.089
1530.52	337.945
1531.44	331.365
1532.36	323.741
1533.29	316.496
1534.21	308.802
1535.13	301.028
1536.05	294.552
1536.97	287.29
1537.89	281.219
1538.81	274.788
1539.73	270.776
1540.65	267.335
1541.56	264.114
1542.48	261.617
1543.4	261.084
1544.32	260.852
1545.24	261.177
1546.16	261.754
1547.07	264.627
1547.99	264.28
1548.91	264.267
1549.82	262.542
1550.74	259.653
1551.66	256.465
1552.57	252.694
1553.49	248.555
1554.4	241.291
1555.32	237.103
1556.23	232.356
1557.15	228.788
1558.06	226.186
1558.97	223.238
1559.89	220.28
1560.8	218.568
1561.71	217.088
1562.63	216.721
1563.54	215.563
1564.45	214.611
1565.36	213.813
1566.28	212.765
1567.19	211.954
1568.1	210.567
1569.01	209.245
1569.92	208.862
1570.83	208.078
1571.74	207.212
1572.65	205.896
1573.56	204.811
1574.47	203.334
1575.38	202.153
1576.29	200.664
1577.2	199.122
1578.11	197.886
1579.01	196.529
1579.92	195.494
1580.83	194.827
1581.74	194.277
1582.64	194.322
1583.55	194.469
1584.46	194.537
1585.36	194.898
1586.27	195.106
1587.18	195.471
1588.08	195.471
1588.99	195.377
1589.89	195.1
1590.8	194.605
1591.7	194.325
1592.61	193.824
1593.51	193.07
1594.41	192.31
1595.32	191.808
1596.22	191.25
1597.12	190.647
1598.03	189.835
1598.93	189.03
1599.83	188.452
1600.73	187.957
1601.64	187.701
1602.54	187.412
1603.44	187.213
1604.34	187.132
1605.24	187.021
1606.14	186.888
1607.04	186.604
1607.94	186.118
1608.84	185.478
1609.74	184.861
1610.64	184.022
1611.54	182.955
1612.44	181.848
1613.33	180.572
1614.23	179.159
1615.13	177.69
1616.03	176.105
1616.92	174.498
1617.82	172.847
1618.72	171.004
1619.61	169.228
1620.51	167.456
1621.41	165.967
1622.3	164.988
1623.2	164.386
1624.09	164.019
1624.99	163.992
1625.88	164.215
1626.78	164.731
1627.67	165.535
1628.57	166.469
1629.46	167.231
1630.35	167.618
1631.25	167.735
1632.14	167.608
1632.85	167.34
1633.78	166.951
1634.71	166.141
1635.64	165.05
1636.57	163.426
1637.5	161.749
1638.42	160.144
1639.35	158.713
1640.28	157.985
1641.21	157.571
1642.13	157.269
1643.06	157.12
1643.99	157.157
1644.91	157.272
1645.84	157.444
1646.77	157.712
1647.69	157.96
1648.62	158.218
1649.54	158.43
1650.47	158.602
1651.39	158.68
1652.32	158.761
1653.24	158.757
1654.17	158.758
1655.09	158.263
1656.01	157.498
1656.94	156.708
1657.86	155.986
1658.78	155.442
1659.71	155.423
1660.63	155.49
1661.55	155.691
1662.47	156.162
1663.4	156.68
1664.32	157.621
1665.24	158.511
1666.16	159.332
1667.08	159.978
1668	160.202
1668.92	160.361
1669.84	160.138
1670.76	159.783
1671.68	159.163
1672.6	158.326
1673.52	157.321
1674.44	156.215
1675.36	155.069
1676.28	153.797
1677.2	152.641
1678.12	151.876
1679.03	151.589
1679.95	151.75
1680.87	152.055
1681.79	152.57
1682.7	153.261
1683.62	153.911
1684.54	154.351
1685.45	154.3
1686.37	154.017
1687.29	153.391
1688.2	152.713
1689.12	152.1
1690.03	151.662
1690.95	150.399
1691.86	149.21
1692.78	148.244
1693.69	147.507
1694.61	146.893
1695.52	146.311
1696.43	145.769
1697.35	145.263
1698.26	144.791
1699.17	144.325
1700.09	143.92
1701	143.564
1701.91	142.916
1702.82	142.153
1703.74	141.418
1704.65	140.874
1705.56	140.384
1706.47	139.97
1707.38	139.703
1708.29	139.588
1709.2	139.451
1710.11	139.316
1711.02	139.251
1711.93	139.114
1712.84	138.953
1713.75	138.782
1714.66	138.357
1715.57	137.99
1716.48	138.082
1717.39	138.223
1718.3	138.369
1719.21	138.573
1720.11	138.527
1721.02	138.415
1721.93	138.246
1722.84	138.015
1723.74	137.744
1724.65	137.385
1725.56	137.113
1726.46	136.669
1727.37	136.348
1728.28	135.594
1729.18	134.85
1730.09	134.103
1730.99	133.358
1731.9	132.652
1732.8	131.961
1733.71	131.333
1734.61	130.789
1735.52	130.407
1736.42	130.236
1737.32	130.198
1738.23	130.129
1739.13	130.255
1740.03	130.414
1740.94	130.692
1741.84	131.008
1742.74	131.415
1743.64	131.925
1744.54	132.52
1745.45	133.268
1746.35	134.158
1747.25	135.156
1748.15	136.327
1749.05	137.636
1749.95	139.54
1750.85	135.746
1751.75	133.097
1752.65	133.2
1753.55	133.498
1754.45	131.749
1755.35	130.604
1756.25	129.736
1757.15	129.082
1758.05	128.612
1758.94	128.33
1759.84	127.979
1760.74	127.705
1761.64	127.43
1762.53	127.332
1763.43	127.954
1764.33	128.485
1765.23	128.696
1766.12	128.671
1767.02	128.623
1767.91	128.536
1768.81	128.42
1769.71	128.262
1770.6	128.223
1771.5	128.035
1772.39	127.928
1773.29	127.599
1774.18	127.23
1775.07	126.619
1775.97	125.952
1776.86	125.314
1777.76	124.611
1778.65	123.995
1779.54	123.367
1780.44	122.827
1781.33	122.357
1782.22	122.292
1783.11	122.082
1784.01	122.167
1784.9	122.225
1785.79	122.464
1786.68	122.774
1787.57	123.061
1788.46	123.403
1789.35	123.588
1790.24	123.914
1791.13	122.755
1792.02	122.618
1792.91	122.539
1793.8	122.799
1794.69	122.749
1795.58	121.168
1796.47	119.402
1797.36	124.936
1798.25	122.757
1799.14	121.149
