Acq. time (s)=	15
Accumulations=	2
Range (cm-¹)=	600...1800
Windows=	2
Autofocus=	Off
AutoExposure=	On
Spike filter=	Multiple accum.
Delay time (s)=	1
Binning=	1
Readout mode=	Signal
DeNoise=	Standard
ICS correction=	Off
Dark correction=	Off
Inst. Process=	Off
Instrument=	XploRA
Detector=	Syncerity
Objective=	x20LWD
Grating=	1200 gr/mm
Filter=	25%
Laser (nm)=	785 
Slit (µm)=	100 
Hole (µm)=	300 
Laser pol=	None
Raman pol=	None
Output=	Camera
StageXY=	Marzhauser
StageZ=	
X (µm)=	-1079.2
Y (µm)=	-7075.8
Project=	
Sample=	
Site=	
Title=	To1-T
Remark=	
Date=	14.10.2022 18:20
Acquired=	14.10.2022 18:20:49
600.787	1537.12
601.956	1543.17
603.126	1550.5
604.294	1549.42
605.463	1563.13
606.631	1575.96
607.8	1587.25
608.967	1596.9
610.135	1605.16
611.302	1611.63
612.468	1616.89
613.635	1620.66
614.802	1624.69
615.968	1627.28
617.133	1631.09
618.299	1636.92
619.464	1644.37
620.629	1652.18
621.793	1661.91
622.958	1669.58
624.121	1676.99
625.285	1683.47
626.448	1689.16
627.612	1693.58
628.774	1696.87
629.937	1698.87
631.099	1699.19
632.261	1698.02
633.423	1696.95
634.584	1696.91
635.745	1697.51
636.906	1697.9
638.066	1698.32
639.227	1698.44
640.386	1698.25
641.546	1697.2
642.705	1695.43
643.864	1693.4
645.023	1689.58
646.181	1685.81
647.339	1682.32
648.497	1680.34
649.655	1678.79
650.812	1677.85
651.969	1677.34
653.125	1677.38
654.282	1678
655.438	1679.03
656.593	1680.49
657.75	1682.27
658.905	1683.94
660.059	1685.44
661.214	1686.83
662.368	1687.78
663.522	1688.57
664.676	1689.5
665.83	1690.4
666.983	1691.38
668.136	1692.16
669.288	1693.01
670.441	1693.69
671.592	1694.42
672.744	1695
673.895	1695.54
675.046	1696.03
676.197	1696.69
677.348	1697.03
678.498	1697.37
679.648	1697.8
680.798	1698.26
681.947	1698.89
683.096	1699.83
684.245	1701.06
685.394	1702.46
686.542	1704.85
687.69	1706.85
688.837	1708.37
689.984	1709.62
691.132	1709.65
692.278	1708.2
693.425	1706.31
694.571	1704.16
695.717	1701.59
696.863	1699.69
698.008	1698.71
699.152	1697.26
700.298	1694.98
701.442	1691.93
702.586	1688.73
703.73	1685.39
704.873	1682.16
706.017	1679.73
707.16	1678.65
708.302	1676.23
709.445	1672.41
710.586	1667.83
711.729	1663.09
712.87	1658.42
714.012	1654.45
715.152	1649.31
716.293	1644.46
717.433	1641.82
718.573	1640.69
719.713	1639.86
720.853	1637.53
721.991	1634.24
723.131	1630.79
724.269	1627.63
725.408	1624.24
726.545	1621.26
727.683	1619.18
728.821	1617.97
729.958	1618.13
731.095	1619.51
732.231	1622.43
733.368	1626.54
734.503	1631.93
735.639	1638.56
736.775	1646.38
737.91	1655.41
739.045	1665.31
740.179	1676.29
741.313	1686.61
742.447	1694.38
743.581	1699.74
744.714	1702.2
745.847	1702.21
746.98	1699.91
748.113	1695.32
749.245	1688.57
750.377	1680.69
751.509	1672.44
752.64	1665.64
753.771	1656.57
754.902	1646.72
756.033	1635.93
757.163	1624.71
758.293	1612.95
759.423	1600.96
760.551	1589.65
761.681	1579.08
762.81	1570.03
763.938	1562.29
765.066	1555.91
766.194	1550.85
767.321	1547.3
768.449	1545.12
769.576	1543.95
770.703	1544.9
771.83	1545.86
772.955	1542.87
774.081	1538.45
775.207	1534.21
776.332	1522.09
777.457	1515.27
778.582	1508.55
779.707	1501.29
780.831	1491.78
781.954	1482.82
783.078	1475.32
784.201	1468.79
785.324	1463.37
786.447	1459.34
787.569	1456.18
788.691	1453.8
789.813	1451.99
790.935	1450.24
792.056	1448.14
793.177	1447.22
794.297	1445.58
795.418	1447.98
796.539	1448.27
797.658	1446.25
798.777	1442.4
799.897	1437.14
801.016	1430.79
802.134	1423.67
803.253	1416.23
804.371	1407.53
805.489	1393.84
806.606	1385.96
807.723	1379.34
808.84	1382.15
809.957	1380.01
811.073	1381.58
812.19	1382.54
813.305	1383.85
814.421	1384.96
815.536	1386.19
816.651	1387.24
817.766	1388.56
818.88	1389.57
819.994	1390.13
821.108	1390.34
822.221	1389.76
823.335	1388.45
824.448	1386.16
825.56	1383
826.673	1379.02
827.784	1374.53
828.897	1370.1
830.008	1366.39
831.119	1364.24
832.23	1363.13
833.341	1363.37
834.451	1365.03
835.561	1366.84
836.671	1368.62
837.78	1369.01
838.89	1368.55
839.998	1367.4
841.108	1365.72
842.216	1363.52
843.324	1360.73
844.431	1357.46
845.539	1353.99
846.646	1350.51
847.753	1345.82
848.859	1341.04
849.966	1336.32
851.071	1332.25
852.178	1329.05
853.283	1326.23
854.388	1323.53
855.494	1320.96
856.598	1318.41
857.703	1315.42
858.806	1311.7
859.91	1308.32
861.014	1305.17
862.116	1302.32
863.22	1299.88
864.322	1297.18
865.425	1294.48
866.527	1291.53
867.628	1288.36
868.73	1284.76
869.831	1280.73
870.932	1276.27
872.032	1271.19
873.133	1265.74
874.233	1259.9
875.333	1253.74
876.432	1247.13
877.532	1240.61
878.631	1234.31
879.729	1229.14
880.828	1225.44
881.926	1222.1
883.023	1219.18
884.121	1216.58
885.218	1214.14
886.315	1211.76
887.412	1209.94
888.508	1208.5
889.604	1208.04
890.699	1208.61
891.795	1209.33
892.89	1210.33
893.985	1211.36
895.08	1212.4
896.174	1213.18
897.268	1213.8
898.362	1214.39
899.456	1215
900.549	1215.5
901.642	1216.04
902.734	1216.62
903.827	1216.76
904.919	1217.04
906.011	1217.55
907.102	1218.37
908.193	1219.61
909.284	1222.99
910.375	1226.75
911.465	1230.82
912.555	1234.95
913.645	1238.42
914.734	1241.7
915.824	1244.56
916.913	1247.35
918.001	1250.02
919.09	1255.54
920.177	1253.35
921.266	1248.42
922.353	1241.25
923.44	1231.82
924.527	1220.13
925.614	1208.16
926.7	1197.01
927.786	1186.69
928.873	1177.39
929.958	1168.77
931.043	1160.81
932.128	1153.92
933.213	1148.16
934.297	1143.75
935.381	1141.71
936.465	1143.05
937.549	1141.42
938.632	1139.56
939.715	1137.73
940.798	1135.98
941.881	1134.18
942.962	1132.02
944.044	1129.53
945.125	1126.71
946.207	1123.31
947.288	1119.5
948.368	1114.46
949.449	1108.96
950.529	1106.2
951.61	1104.93
952.689	1106.16
953.769	1106.86
954.847	1106.54
955.926	1106.94
957.004	1107.01
958.082	1106.38
959.16	1104.93
960.238	1102.76
961.316	1099.24
962.392	1094.9
963.469	1089.59
964.546	1083.45
965.622	1075.69
966.698	1072.36
967.774	1071.25
968.849	1071.31
969.924	1072.07
970.998	1073.05
972.073	1074.79
973.148	1077.18
974.221	1079.93
975.295	1083.7
976.369	1088.36
977.441	1093.17
978.514	1097.91
979.587	1102.13
980.659	1105.82
981.731	1108.69
982.802	1111.45
983.874	1113.77
984.945	1116.16
986.016	1118.16
987.087	1120
988.157	1121.53
989.227	1122.6
990.296	1123.15
991.366	1123.15
992.435	1122.66
993.504	1121.67
994.573	1120.2
995.641	1118.44
996.709	1116.41
997.777	1114.3
998.844	1111.89
999.911	1109.11
1000.98	1106.6
1002.05	1104.11
1003.11	1101.4
1004.18	1098.51
1005.24	1095.2
1006.31	1091.04
1007.37	1086.08
1008.44	1080.08
1009.5	1073.72
1010.57	1066.97
1011.63	1059.81
1012.7	1052.68
1013.76	1045.13
1014.82	1036.3
1015.89	1027.54
1016.95	1018.95
1018.01	1010.66
1019.07	1003.71
1020.13	997.451
1021.2	991.464
1022.26	986.803
1023.32	982.826
1024.38	979.246
1025.44	975.965
1026.5	972.919
1027.56	969.497
1028.62	966.325
1029.68	963.634
1030.74	961.332
1031.8	959.438
1032.85	957.935
1033.91	956.921
1034.97	956.607
1036.03	956.858
1037.09	957.49
1038.14	958.313
1039.2	959.39
1040.26	960.579
1041.31	961.449
1042.37	963.051
1043.42	964.528
1044.48	965.691
1045.53	966.411
1046.59	966.144
1047.64	964.79
1048.7	962.793
1049.75	959.889
1050.81	956.098
1051.86	951.414
1052.91	945.88
1053.97	940.353
1055.02	935.449
1056.07	931.359
1057.12	928.235
1058.17	925.867
1059.23	924.383
1060.28	924.164
1061.33	924.804
1062.38	925.888
1063.43	927.99
1064.48	930.272
1065.53	931.548
1066.58	931.366
1067.63	929.3
1068.68	926.928
1069.72	924.462
1070.77	922.826
1071.82	921.014
1072.87	919.14
1073.92	916.466
1074.96	912.166
1076.01	907.325
1077.06	902.506
1078.1	899.059
1079.15	896.183
1080.2	893.365
1081.24	891.065
1082.29	888.616
1083.33	886.255
1084.38	884.028
1085.42	881.998
1086.47	880.554
1087.51	879.714
1088.55	879.618
1089.6	880.495
1090.64	881.824
1091.68	883.02
1092.73	884.073
1093.77	884.552
1094.81	884.717
1095.85	884.578
1096.89	884.117
1097.93	883.303
1098.98	881.963
1100.02	880.231
1101.06	877.795
1102.1	874.493
1103.14	870.511
1104.18	865.841
1105.21	861.151
1106.25	856.724
1107.29	854.765
1108.33	853.266
1109.37	852.163
1110.41	851.739
1111.44	857.605
1112.48	859.095
1113.52	860.462
1114.56	861.561
1115.59	862.352
1116.63	862.37
1117.66	861.828
1118.7	860.613
1119.73	858.982
1120.77	856.901
1121.8	854.595
1122.84	852.206
1123.87	850.082
1124.91	847.578
1125.94	845.05
1126.97	842.622
1128.01	840.456
1129.04	838.636
1130.07	837.533
1131.11	836.88
1132.14	836.872
1133.17	837.684
1134.2	839.182
1135.23	842.15
1136.26	846.259
1137.29	852.328
1138.32	859.176
1139.35	866.973
1140.38	875.591
1141.41	883.979
1142.44	893.212
1143.47	900.99
1144.5	910.68
1145.53	916.823
1146.56	920.931
1147.58	922.322
1148.61	920.966
1149.64	914.044
1150.67	914.22
1151.69	919.522
1152.72	926.395
1153.75	944.406
1154.77	960.499
1155.8	978.764
1156.82	999.586
1157.85	1021.47
1158.87	1022.83
1159.9	1015.19
1160.92	1001.5
1161.95	979.028
1162.97	955.31
1163.99	930.606
1165.02	907.637
1166.04	888.519
1167.06	869.961
1168.08	853.108
1169.11	839.153
1170.13	829.071
1171.15	821.994
1172.17	817.454
1173.19	815.587
1174.21	815.213
1175.23	815.951
1176.25	817.777
1177.27	821.932
1178.29	827.502
1179.31	834.732
1180.33	841.821
1181.35	849.333
1182.37	855.223
1183.39	862.59
1184.4	871.74
1185.42	880.175
1186.44	886.615
1187.46	890.39
1188.47	891.251
1189.49	889.434
1190.51	884.775
1191.52	872.221
1192.54	859.306
1193.55	844.163
1194.57	830.069
1195.58	817.428
1196.6	805.33
1197.61	795.44
1198.63	795.528
1199.64	787.861
1200.65	781.661
1201.67	775.822
1202.68	771.153
1203.69	767.403
1204.7	764.913
1205.72	763.924
1206.73	764.524
1207.74	768.132
1208.75	771.973
1209.76	775.534
1210.77	778.829
1211.78	781.681
1212.79	784.205
1213.8	786.254
1214.81	788.103
1215.82	789.628
1216.83	790.839
1217.84	791.671
1218.85	792.107
1219.86	792.078
1220.87	791.679
1221.87	790.746
1222.88	789.017
1223.89	786.229
1224.9	783.297
1225.9	780.218
1226.91	777.486
1227.92	776.039
1228.92	774.263
1229.93	772.28
1230.93	769.699
1231.94	765.44
1232.94	760.548
1233.95	755.025
1234.95	748.96
1235.95	742.439
1236.96	735.928
1237.96	728.511
1238.96	721.165
1239.97	714.008
1240.97	707.162
1241.97	701.112
1242.97	695.805
1243.98	691.306
1244.98	687.874
1245.98	684.969
1246.98	682.486
1247.98	680.51
1248.98	678.857
1249.98	677.449
1250.98	676.024
1251.98	674.898
1252.98	674.055
1253.98	673.479
1254.98	673.062
1255.98	673.301
1256.97	674.006
1257.97	674.745
1258.97	675.904
1259.97	677.105
1260.97	678.187
1261.96	678.572
1262.96	678.504
1263.95	677.908
1264.95	676.636
1265.95	674.557
1266.94	671.702
1267.94	669.334
1268.93	668.155
1269.93	666.348
1270.92	664.048
1271.92	661.667
1272.91	658.627
1273.9	655.806
1274.9	653.287
1275.89	651.344
1276.88	650.174
1277.87	649.83
1278.87	650.134
1279.86	651.085
1280.85	652.565
1281.84	654.361
1282.83	656.65
1283.82	659.603
1284.81	662.644
1285.81	665.578
1286.8	668.161
1287.79	670.035
1288.77	671.054
1289.76	671.512
1290.75	671.024
1291.74	669.506
1292.73	667.226
1293.72	664.067
1294.71	660.299
1295.69	655.795
1296.68	651.039
1297.67	646.296
1298.65	641.961
1299.64	637.89
1300.63	634.795
1301.61	632.188
1302.6	630.072
1303.58	628.268
1304.57	626.547
1305.55	624.92
1306.54	622.805
1307.52	620.635
1308.51	618.55
1309.49	617.354
1310.48	618.543
1311.46	618.112
1312.44	617.46
1313.42	615.141
1314.41	613.104
1315.39	611.264
1316.37	610.966
1317.35	611.234
1318.33	612.556
1319.32	613.769
1320.3	617.785
1321.28	627.168
1322.26	638.031
1323.24	649.656
1324.22	661.275
1325.2	671.929
1326.18	681.665
1327.15	687.827
1328.13	694.419
1329.11	700.933
1330.09	700.535
1331.07	695.902
1332.05	684.036
1333.02	673.254
1334	651.017
1334.98	639.863
1335.95	630.215
1336.93	620.17
1337.91	610.995
1338.88	603.167
1339.86	595.933
1340.83	599.871
1341.81	597.702
1342.78	595.313
1343.76	591.72
1344.73	588.471
1345.7	585.744
1346.68	583.299
1347.65	581.646
1348.62	580.716
1349.6	580.378
1350.57	580.38
1351.54	580.767
1352.51	581.344
1353.49	582.54
1354.46	583.649
1355.43	584.122
1356.4	583.164
1357.37	579.358
1358.34	575.419
1359.31	571.526
1360.28	567.473
1361.25	563.252
1362.22	558.258
1363.19	553.103
1364.16	548.331
1365.12	544.189
1366.09	541.042
1367.06	538.51
1368.03	536.628
1369	535.188
1369.96	534.677
1370.93	534.873
1371.9	535.753
1372.86	537.12
1373.83	538.943
1374.79	541.063
1375.76	543.303
1376.73	545.78
1377.69	548.115
1378.66	550.396
1379.62	552.393
1380.58	554.093
1381.55	555.397
1382.51	556.292
1383.48	556.798
1384.44	556.921
1385.4	556.7
1386.36	556.128
1387.33	555.315
1388.29	553.725
1389.25	551.887
1390.21	549.776
1391.17	547.462
1392.13	544.938
1393.09	542.452
1394.06	539.833
1395.01	537.189
1395.97	534.517
1396.93	531.745
1397.89	528.801
1398.85	525.773
1399.81	522.463
1400.77	519.027
1401.73	515.656
1402.69	512.393
1403.64	509.264
1404.6	506.305
1405.56	504.268
1406.52	502.473
1407.47	500.936
1408.43	500.229
1409.39	499.886
1410.34	499.745
1411.3	499.861
1412.25	500.132
1413.21	500.548
1414.16	500.725
1415.12	501.007
1416.07	501.355
1417.03	501.794
1417.98	502.352
1418.93	503.02
1419.89	503.732
1420.84	504.422
1421.79	505.132
1422.74	505.797
1423.7	505.987
1424.65	505.387
1425.6	504.884
1426.55	504.326
1427.5	503.874
1428.45	503.92
1429.4	504.342
1430.35	505.315
1431.3	506.597
1432.25	508.586
1433.2	511.858
1434.15	516.46
1435.1	521.625
1436.05	527.484
1437	532.576
1437.95	537.04
1438.89	540.416
1439.84	542.133
1440.79	542.209
1441.74	540.171
1442.68	536.437
1443.63	530.674
1444.58	523.47
1445.52	513.778
1446.47	506.841
1447.41	500.742
1448.36	495.25
1449.3	490.182
1450.25	485.766
1451.19	482.656
1452.14	481.28
1453.08	480.166
1454.03	479.158
1454.97	478.725
1455.91	478.329
1456.85	477.889
1457.8	477.1
1458.74	476.268
1459.68	474.904
1460.62	473.548
1461.57	471.445
1462.51	469.301
1463.45	467.177
1464.39	465.18
1465.33	463.309
1466.27	462.277
1467.21	461.937
1468.15	461.53
1469.09	461.405
1470.03	461.418
1470.97	461.504
1471.9	461.599
1472.84	461.553
1473.78	461.379
1474.72	461.1
1475.66	460.9
1476.59	460.871
1477.53	461
1478.47	461.317
1479.4	461.719
1480.34	462.085
1481.28	462.729
1482.21	463.324
1483.15	463.964
1484.08	464.58
1485.02	465.113
1485.95	465.541
1486.89	465.729
1487.82	465.773
1488.76	465.482
1489.69	465.1
1490.62	464.534
1491.56	463.902
1492.49	463.181
1493.42	462.666
1494.35	462.318
1495.29	461.924
1496.22	461.414
1497.15	460.832
1498.08	460.017
1499.01	458.952
1499.94	457.44
1500.87	455.418
1501.8	453.17
1502.73	451.019
1503.66	449.016
1504.59	447.609
1505.52	446.647
1506.45	446.373
1507.38	447.061
1508.31	448.703
1509.23	451.322
1510.16	455.58
1511.09	461.577
1512.02	468.713
1512.94	476.868
1513.87	485.91
1514.8	495.765
1515.72	506.193
1516.65	517.371
1517.58	529.42
1518.5	542.385
1519.43	556.098
1520.35	570.68
1521.28	585.832
1522.2	601.09
1523.12	615.139
1524.05	627.947
1524.97	638.682
1525.9	647.146
1526.82	653.836
1527.74	657.59
1528.66	658
1529.59	651.981
1530.51	645.949
1531.43	638.554
1532.35	630.121
1533.27	620.733
1534.19	610.064
1535.11	597.346
1536.04	583.637
1536.96	569.223
1537.88	552.95
1538.8	535.733
1539.71	518.599
1540.63	502.147
1541.55	486.991
1542.47	473.469
1543.39	462.158
1544.31	452.575
1545.23	444.578
1546.14	438.522
1547.06	434.272
1547.98	432.455
1548.89	431.186
1549.81	428.476
1550.73	426.705
1551.64	424.883
1552.56	422.606
1553.47	419.793
1554.39	416.203
1555.31	411.272
1556.22	405.778
1557.13	399.765
1558.05	393.261
1558.96	386.071
1559.88	378.525
1560.79	370.985
1561.7	363.575
1562.62	356.448
1563.53	349.71
1564.44	343.636
1565.35	337.962
1566.27	332.751
1567.18	327.826
1568.09	323.6
1569	319.842
1569.91	316.458
1570.82	313.363
1571.73	310.681
1572.64	308.254
1573.55	305.899
1574.46	303.34
1575.37	300.528
1576.28	297.668
1577.19	294.616
1578.1	291.447
1579	288.161
1579.91	284.919
1580.82	281.745
1581.73	278.548
1582.63	275.544
1583.54	272.635
1584.45	269.842
1585.35	267.013
1586.26	264.188
1587.17	261.525
1588.07	258.907
1588.98	257.025
1589.88	255.037
1590.79	253.117
1591.69	251.023
1592.6	249.139
1593.5	247.09
1594.4	244.764
1595.31	242.229
1596.21	239.928
1597.11	237.995
1598.02	236.17
1598.92	234.492
1599.82	232.827
1600.72	231.413
1601.63	230.686
1602.53	230.546
1603.43	230.312
1604.33	229.605
1605.23	228.712
1606.13	227.622
1607.03	226.576
1607.93	225.278
1608.83	223.406
1609.73	221.269
1610.63	218.608
1611.53	215.534
1612.43	212.495
1613.32	209.23
1614.22	205.563
1615.12	201.346
1616.02	197.781
1616.92	194.535
1617.81	191.23
1618.71	188.231
1619.61	185.453
1620.5	182.802
1621.4	180.494
1622.29	178.047
1623.19	175.044
1624.08	172.331
1624.98	169.992
1625.87	167.483
1626.77	164.951
1627.66	162.63
1628.56	160.396
1629.45	158.134
1630.34	156.08
1631.24	154.278
1632.13	153.105
1632.84	152.747
1633.77	153.318
1634.7	153.265
1635.63	153.643
1636.56	153.757
1637.49	154.213
1638.42	155.009
1639.34	155.4
1640.27	155.861
1641.2	156.244
1642.13	156.272
1643.05	155.659
1643.98	154.567
1644.91	153.804
1645.83	153.273
1646.76	152.443
1647.68	151.657
1648.61	151.058
1649.54	150.293
1650.46	149.973
1651.39	148.468
1652.31	148.377
1653.23	148.598
1654.16	149.037
1655.08	149.625
1656.01	150.917
1656.93	152.089
1657.85	152.387
1658.78	152.486
1659.7	152.062
1660.62	151.08
1661.54	149.97
1662.47	148.994
1663.39	148.262
1664.31	147.607
1665.23	146.458
1666.15	146.14
1667.07	146.628
1667.99	146.598
1668.92	146.762
1669.84	146.419
1670.76	146.287
1671.68	146.4
1672.6	146.297
1673.52	145.84
1674.43	145.538
1675.35	144.777
1676.27	143.032
1677.19	141.656
1678.11	140.425
1679.03	139.589
1679.95	138.8
1680.86	138.013
1681.78	137.727
1682.7	137.995
1683.61	137.917
1684.53	138.519
1685.45	138.927
1686.36	138.991
1687.28	139.199
1688.2	140.13
1689.11	140.596
1690.03	140.417
1690.94	141.479
1691.86	142.196
1692.77	144.097
1693.69	145.611
1694.6	148.094
1695.52	154.167
1696.43	182.054
1697.34	180.494
1698.26	134.629
1699.17	128.048
1700.08	128.829
1700.99	130.181
1701.91	129.329
1702.82	128.966
1703.73	128.874
1704.64	127.956
1705.55	129.328
1706.47	131.086
1707.38	134.416
1708.29	127.493
1709.2	127.364
1710.11	131.375
1711.02	135.032
1711.93	134.748
1712.84	133.424
1713.75	133.332
1714.66	133.842
1715.57	134.341
1716.48	134.585
1717.39	134.693
1718.29	134.724
1719.2	134.743
1720.11	134.281
1721.02	133.689
1721.93	132.724
1722.83	131.449
1723.74	130.568
1724.65	129.428
1725.55	128.332
1726.46	127.655
1727.37	126.814
1728.27	126.121
1729.18	125.465
1730.08	124.953
1730.99	124.682
1731.89	124.776
1732.8	124.381
1733.7	124.088
1734.61	124.058
1735.51	124.424
1736.42	124.504
1737.32	124.331
1738.22	123.794
1739.13	123.701
1740.03	122.317
1740.93	121.657
1741.83	121.367
1742.74	120.88
1743.64	120.367
1744.54	120.381
1745.44	120.102
1746.34	120.55
1747.24	121.289
1748.15	122.651
1749.05	123.913
1749.95	124.271
1750.85	124.276
1751.75	124.112
1752.65	123.842
1753.55	123.271
1754.45	122.201
1755.35	120.977
1756.25	119.037
1757.14	118.268
1758.04	117.346
1758.94	116.384
1759.84	115.668
1760.74	115.666
1761.63	115.967
1762.53	117.043
1763.43	117.513
1764.33	117.67
1765.22	117.816
1766.12	118.031
1767.02	118.229
1767.91	118.476
1768.81	118.438
1769.7	118.249
1770.6	118.291
1771.49	118.039
1772.39	117.535
1773.28	116.733
1774.18	116.198
1775.07	115.463
1775.97	114.685
1776.86	114.476
1777.75	114.651
1778.65	114.638
1779.54	114.268
1780.43	113.66
1781.33	113.301
1782.22	112.641
1783.11	111.38
1784	110.931
1784.89	110.637
1785.79	110.65
1786.68	110.49
1787.57	110.472
1788.46	110.591
1789.35	110.581
1790.24	110.323
1791.13	110.312
1792.02	110.552
1792.91	110.762
1793.8	110.712
1794.69	110.706
1795.58	110.63
1796.47	110.227
1797.36	109.113
1798.25	108.926
1799.13	107.428
