Acq. time (s)=	15
Accumulations=	2
Range (cm-¹)=	600...1800
Windows=	2
Autofocus=	Off
AutoExposure=	Off
Spike filter=	Multiple accum.
Delay time (s)=	1
Binning=	1
Readout mode=	Signal
DeNoise=	Standard
ICS correction=	Off
Dark correction=	Off
Inst. Process=	Off
Instrument=	XploRA
Detector=	Syncerity
Objective=	x20LWD
Grating=	1200 gr/mm
Filter=	25%
Laser (nm)=	785 
Slit (µm)=	100 
Hole (µm)=	300 
Laser pol=	None
Raman pol=	None
Output=	Camera
StageXY=	Marzhauser
StageZ=	
X (µm)=	6664.8
Y (µm)=	4275.2
Project=	
Sample=	
Site=	
Title=	To2
Remark=	
Date=	29.10.2022 04:58
Acquired=	29.10.2022 04:58:01
600.839	497.874
602.009	508.165
603.178	514.438
604.347	521.774
605.516	528.389
606.684	536.054
607.852	543.136
609.02	549.321
610.187	554.701
611.355	559.528
612.521	562.971
613.688	566.34
614.854	569.287
616.02	571.5
617.185	574.595
618.351	577.562
619.516	579.815
620.681	582.438
621.846	584.438
623.009	586.361
624.174	588.347
625.337	591.843
626.501	594.551
627.664	597.397
628.826	599.392
629.988	601.721
631.151	603.734
632.313	605.665
633.474	607.015
634.635	609.232
635.797	610.885
636.958	613.514
638.117	616.089
639.278	618.207
640.437	620.906
641.597	623.084
642.756	624.463
643.915	625.773
645.074	626.552
646.233	626.843
647.391	627.827
648.548	628.149
649.706	628.105
650.863	627.391
652.02	626.342
653.176	626.07
654.333	626.661
655.489	626.329
656.645	626.016
657.8	625.971
658.955	626.388
660.11	626.581
661.264	626.397
662.419	627.159
663.573	628.495
664.727	630.125
665.88	632.125
667.033	634.651
668.186	636.855
669.338	639.141
670.491	641.112
671.643	642.626
672.794	644.794
673.945	646.353
675.096	648.429
676.247	649.86
677.398	650.08
678.548	649.562
679.698	648.85
680.847	648.578
681.997	648.924
683.146	649.63
684.294	650.77
685.443	653.142
686.591	656.469
687.739	658.978
688.887	661.689
690.034	662.937
691.181	663.531
692.328	664.738
693.474	664.826
694.62	665.091
695.766	664.515
696.911	663.464
698.057	663.318
699.202	663.029
700.346	661.855
701.49	661.324
702.635	660.271
703.779	658.842
704.922	657.583
706.065	656.026
707.208	655.318
708.351	653.394
709.493	651.152
710.635	647.743
711.776	644.001
712.918	641.012
714.059	638.374
715.2	636.553
716.341	634.919
717.481	633.617
718.621	633.005
719.761	633.219
720.9	633.257
722.04	633.568
723.178	634.867
724.317	637.324
725.455	639.959
726.594	641.343
727.731	642.805
728.868	644.429
730.005	646.8
731.142	647.694
732.279	649.626
733.415	650.9
734.551	651.958
735.686	651.903
736.822	651.065
737.957	650.487
739.092	649.985
740.226	649.081
741.36	648.557
742.495	646.894
743.628	645.808
744.762	645.539
745.895	644.244
747.027	643.466
748.16	641.97
749.292	640.776
750.423	639.265
751.555	637.079
752.686	633.266
753.817	628.514
754.949	623.986
756.079	619.145
757.209	615.326
758.339	610.813
759.469	607.237
760.597	604.258
761.727	603.11
762.856	602.046
763.984	602.745
765.112	600.964
766.24	599.315
767.367	596.992
768.494	594.882
769.622	594.229
770.749	593.974
771.874	593.858
773.001	594.142
774.127	595.313
775.253	595.684
776.377	595.656
777.503	595.261
778.627	595.187
779.751	595.346
780.876	594.904
782	594.849
783.123	594.311
784.246	593.483
785.37	590.664
786.492	586.73
787.614	582.787
788.737	578.588
789.858	576.149
790.979	573.32
792.101	571.825
793.222	570.85
794.342	570.932
795.463	571.368
796.583	572.179
797.702	573.435
798.822	573.724
799.942	574.268
801.06	574.654
802.179	575.263
803.297	574.024
804.415	571.997
805.533	569.057
806.651	565.639
807.768	562.94
808.885	560.887
810.001	560.492
811.118	561.117
812.233	564.054
813.349	564.362
814.464	564.281
815.58	564.814
816.695	565.671
817.809	565.186
818.924	560.76
820.038	554.457
821.152	550.562
822.265	548.067
823.378	550.382
824.491	553.419
825.604	556.268
826.716	557.761
827.828	561.117
828.94	563.266
830.051	564.517
831.162	563.725
832.273	561.66
833.383	561.399
834.494	560.612
835.604	559.333
836.714	557.644
837.823	556.106
838.932	554.653
840.041	552.767
841.15	550.396
842.258	548.51
843.366	546.351
844.474	544.596
845.581	543.811
846.688	542.295
847.795	540.246
848.901	538.832
850.008	538.664
851.115	538.731
852.22	538.855
853.325	538.531
854.43	538.627
855.536	538.208
856.64	536.809
857.745	535.158
858.848	533.348
859.952	531.56
861.055	529.066
862.158	526.43
863.261	523.958
864.364	522.429
865.466	521.024
866.568	519.939
867.67	518.744
868.771	517.09
869.873	515.595
870.973	514.234
872.074	513.432
873.174	512.129
874.274	510.704
875.374	510.068
876.473	510.316
877.572	509.887
878.671	508.773
879.77	507.86
880.868	507.293
881.966	506.414
883.064	506.105
884.161	506.428
885.258	506.594
886.356	507.805
887.452	508.947
888.548	508.79
889.645	508.259
890.74	507.529
891.836	506.449
892.931	504.486
894.025	503.189
895.12	500.938
896.214	499.866
897.308	499.165
898.402	499.602
899.495	500.068
900.588	499.81
901.681	500.688
902.774	501.889
903.866	503.205
904.958	504.867
906.05	506.376
907.142	507.33
908.233	508.633
909.324	507.756
910.414	506.263
911.504	505.026
912.594	502.94
913.684	501.198
914.774	498.705
915.863	496.898
916.952	494.557
918.041	492.603
919.129	490.007
920.217	487.571
921.305	485.46
922.392	483.05
923.48	481.804
924.567	480.745
925.653	479.357
926.74	476.934
927.825	474.968
928.911	473.696
929.997	472.591
931.082	471.202
932.166	470.162
933.252	469.55
934.336	468.684
935.42	468.11
936.504	466.868
937.587	466.245
938.671	464.923
939.753	463.482
940.836	461.703
941.919	460.197
943	458.649
944.082	456.671
945.163	455.631
946.245	454.861
947.326	453.11
948.406	452.064
949.487	452.341
950.567	452.262
951.647	451.344
952.727	450.958
953.805	450.382
954.885	449.551
955.964	448.821
957.042	447.947
958.12	446.772
959.198	446.526
960.276	446.107
961.352	445.926
962.43	445.411
963.507	444.795
964.583	444.557
965.659	444.406
966.735	445.563
967.81	445.663
968.885	445.94
969.961	447.244
971.036	448.25
972.11	448.991
973.184	449.645
974.258	450.018
975.332	450.461
976.405	452.643
977.478	454.79
978.551	456.901
979.624	457.878
980.696	458.625
981.767	458.575
982.839	458.653
983.911	458.045
984.982	456.625
986.052	455.105
987.123	454.396
988.193	454.116
989.263	453.24
990.333	453.902
991.403	454.521
992.471	454.712
993.54	453.745
994.608	452.971
995.677	452.83
996.745	453.385
997.812	453.728
998.88	454.181
999.947	454.192
1001.01	454.021
1002.08	452.849
1003.15	451.121
1004.21	448.248
1005.28	445.017
1006.34	441.963
1007.41	439.051
1008.47	437.193
1009.54	434.422
1010.6	432.075
1011.67	429.821
1012.73	426.851
1013.79	424.76
1014.86	422.7
1015.92	421.581
1016.98	420.435
1018.05	419.117
1019.11	417.965
1020.17	416.914
1021.23	415.144
1022.29	413.377
1023.35	411.214
1024.41	409.081
1025.47	407.32
1026.53	405.153
1027.59	403.693
1028.65	403.224
1029.71	401.648
1030.77	399.76
1031.83	398.465
1032.89	396.968
1033.95	396.971
1035	397.335
1036.06	397.976
1037.12	399.559
1038.18	400.627
1039.23	402.191
1040.29	403.945
1041.35	404.767
1042.4	405.218
1043.46	406.87
1044.51	408.192
1045.57	408.504
1046.62	407.728
1047.68	405.495
1048.73	403.608
1049.79	401.249
1050.84	398.781
1051.89	396.094
1052.95	393.661
1054	391.263
1055.05	389.345
1056.1	386.193
1057.16	385.012
1058.21	384.203
1059.26	382.986
1060.31	383.286
1061.36	383.833
1062.41	384.755
1063.46	387.879
1064.51	388.939
1065.56	389.431
1066.61	389.109
1067.66	388.51
1068.71	387.405
1069.76	387.402
1070.81	386.254
1071.85	384.941
1072.9	383.239
1073.95	380.725
1075	377.527
1076.04	375.814
1077.09	374.526
1078.14	374.067
1079.18	375.512
1080.23	376.741
1081.27	377.426
1082.32	378.225
1083.36	378.419
1084.41	378.648
1085.45	372.239
1086.5	371.574
1087.54	370.867
1088.59	369.727
1089.63	367.924
1090.67	366.34
1091.71	365.253
1092.76	363.925
1093.8	363.176
1094.84	362.801
1095.88	362.541
1096.92	362.647
1097.97	362.982
1099.01	363.324
1100.05	363.79
1101.09	363.908
1102.13	363.758
1103.17	364.005
1104.21	363.943
1105.25	364.119
1106.28	364.116
1107.32	364.274
1108.36	363.523
1109.4	362.207
1110.44	360.447
1111.47	359.787
1112.51	359.198
1113.55	359.133
1114.59	359.348
1115.62	359.728
1116.66	359.227
1117.69	358.164
1118.73	357.796
1119.77	357.477
1120.8	357.463
1121.84	358.179
1122.87	359.198
1123.9	359.075
1124.94	359.337
1125.97	358.798
1127	357.92
1128.04	357.113
1129.07	355.961
1130.1	353.563
1131.13	352.179
1132.17	350.724
1133.2	351.175
1134.23	352.504
1135.26	354.291
1136.29	355.997
1137.32	358.412
1138.35	361.333
1139.38	364.8
1140.41	367.037
1141.44	368.92
1142.47	370.245
1143.5	371.47
1144.53	372.36
1145.56	374.535
1146.59	376.14
1147.61	376.312
1148.64	377.901
1149.67	379.15
1150.7	380.348
1151.72	381.448
1152.75	382.32
1153.77	382.977
1154.8	382.431
1155.83	380.207
1156.85	377.385
1157.88	373.105
1158.9	368.399
1159.93	363.077
1160.95	357.876
1161.97	352.322
1163	348.15
1164.02	345.25
1165.04	342.447
1166.07	340.927
1167.09	339.568
1168.11	338.314
1169.13	338.948
1170.16	339.611
1171.18	340.601
1172.2	342.729
1173.22	344.106
1174.24	344.867
1175.26	345.867
1176.28	346.417
1177.3	347.88
1178.32	349
1179.34	349.614
1180.36	350.565
1181.38	350.806
1182.4	351.046
1183.41	351.161
1184.43	351.18
1185.45	349.926
1186.47	348.712
1187.48	347.24
1188.5	345.497
1189.52	343.594
1190.53	340.964
1191.55	338.268
1192.56	335.252
1193.58	332.009
1194.59	328.756
1195.61	326.246
1196.62	323.421
1197.64	322.062
1198.65	321.355
1199.67	320.713
1200.68	321.18
1201.69	321.708
1202.71	321.701
1203.72	322.785
1204.73	319.222
1205.74	322.988
1206.76	325.921
1207.77	329.006
1208.78	332.156
1209.79	333.375
1210.8	331.393
1211.81	331.139
1212.82	329.739
1213.83	327.963
1214.84	326.626
1215.85	325.308
1216.86	324.183
1217.87	323.845
1218.88	323.554
1219.88	323.781
1220.89	323.809
1221.9	323.917
1222.91	323.862
1223.92	323.657
1224.92	322.528
1225.93	321.174
1226.93	320.146
1227.94	318.98
1228.95	318.07
1229.95	316.361
1230.96	313.686
1231.96	312.867
1232.97	312.921
1233.97	312.027
1234.98	311.552
1235.98	310.02
1236.98	308.176
1237.99	306.482
1238.99	304.195
1239.99	301.842
1241	299.731
1242	297.677
1243	296.212
1244	294.761
1245	293.571
1246	292.363
1247.01	291.3
1248.01	290.289
1249.01	289.138
1250.01	288.497
1251.01	288.206
1252.01	288.143
1253	288.429
1254	288.889
1255	288.948
1256	288.912
1257	289.014
1258	288.96
1258.99	288.728
1259.99	289.197
1260.99	288.949
1261.99	289.776
1262.98	289.091
1263.98	287.884
1264.98	286.655
1265.97	285.149
1266.97	283.189
1267.96	280.76
1268.96	279.125
1269.95	277.617
1270.95	275.518
1271.94	274.49
1272.93	274.67
1273.93	275.131
1274.92	276.011
1275.91	277.387
1276.91	280.003
1277.9	281.403
1278.89	281.667
1279.88	282.944
1280.87	283.906
1281.87	285.329
1282.86	286.933
1283.85	288.854
1284.84	290.243
1285.83	290.811
1286.82	290.826
1287.81	290.4
1288.8	288.633
1289.79	287.059
1290.78	285.714
1291.76	283.752
1292.75	281.676
1293.74	278.689
1294.73	276.451
1295.72	275.876
1296.7	275.047
1297.69	274.145
1298.68	273.498
1299.66	273.205
1300.65	273.32
1301.64	272.659
1302.62	273.005
1303.61	273.12
1304.59	273.427
1305.58	274.034
1306.56	274.67
1307.55	274.779
1308.53	274.339
1309.51	273.632
1310.5	273.405
1311.48	273.103
1312.46	273.109
1313.45	273.308
1314.43	273.544
1315.41	273.279
1316.39	273.717
1317.38	274.1
1318.36	274.856
1319.34	275.681
1320.32	276.62
1321.3	278.225
1322.28	278.972
1323.26	279.647
1324.24	281.008
1325.22	281.55
1326.2	280.846
1327.18	279.772
1328.16	278.221
1329.13	276.648
1330.11	275.089
1331.09	273.015
1332.07	270.859
1333.04	267.93
1334.02	265.397
1335	262.661
1335.97	260.231
1336.95	258.224
1337.93	256.059
1338.9	254.58
1339.88	252.813
1340.85	251.616
1341.83	250.502
1342.8	250.252
1343.78	250.463
1344.75	251.334
1345.72	251.786
1346.7	251.698
1347.67	251.188
1348.65	250.853
1349.62	250.803
1350.59	250.977
1351.56	250.812
1352.53	250.747
1353.51	250.365
1354.48	249.157
1355.45	248.046
1356.42	247.065
1357.39	245.986
1358.36	244.345
1359.33	243.047
1360.3	241.48
1361.27	240.632
1362.24	240.426
1363.21	239.97
1364.18	239.289
1365.14	239.371
1366.11	239.678
1367.08	239.703
1368.05	239.949
1369.02	240.188
1369.98	240.46
1370.95	240.496
1371.92	240.669
1372.88	240.717
1373.85	240.532
1374.81	240.578
1375.78	241.595
1376.74	241.724
1377.71	241.416
1378.68	240.92
1379.64	240.545
1380.6	240.834
1381.57	240.382
1382.53	239.981
1383.49	239.974
1384.46	239.669
1385.42	238.951
1386.38	238.064
1387.34	237.214
1388.31	236.865
1389.27	236.45
1390.23	236.014
1391.19	235.984
1392.15	236.325
1393.11	236.188
1394.07	236.032
1395.03	235.839
1395.99	235.991
1396.95	235.635
1397.91	234.68
1398.87	233.724
1399.83	232.466
1400.79	230.738
1401.75	229.47
1402.7	227.624
1403.66	226.246
1404.62	225.103
1405.58	224.627
1406.53	224.418
1407.49	224.421
1408.45	224.674
1409.4	226.001
1410.36	226.981
1411.31	228.278
1412.27	229.25
1413.23	230.122
1414.18	231.2
1415.13	231.465
1416.09	231.117
1417.04	229.673
1418	227.358
1418.95	226.253
1419.9	226.168
1420.86	227.637
1421.81	227.683
1422.76	227.402
1423.71	227.248
1424.67	227.377
1425.62	227.891
1426.57	228.001
1427.52	229.42
1428.47	231.142
1429.42	233.437
1430.37	234.232
1431.32	234.352
1432.27	233.994
1433.22	233.636
1434.17	232.955
1435.12	231.618
1436.07	230.484
1437.02	229.5
1437.96	228.368
1438.91	226.675
1439.86	224.711
1440.81	222.192
1441.75	220.355
1442.7	219.257
1443.65	218.213
1444.59	218.205
1445.54	217.279
1446.49	217.18
1447.43	216.056
1448.38	214.678
1449.32	211.146
1450.27	212.989
1451.21	215.061
1452.15	216.479
1453.1	217.723
1454.04	218.076
1454.98	214.433
1455.93	214.096
1456.87	213.231
1457.81	212.828
1458.76	212.182
1459.7	212.499
1460.64	212.634
1461.58	212.402
1462.52	211.904
1463.46	211.284
1464.4	210.745
1465.34	209.607
1466.28	208.242
1467.22	206.853
1468.16	205.915
1469.1	205.177
1470.04	205.213
1470.98	206.091
1471.92	207.013
1472.86	207.929
1473.8	208.09
1474.73	207.769
1475.67	208.571
1476.61	208.437
1477.55	207.956
1478.48	208.009
1479.42	208.464
1480.36	208.957
1481.29	209.175
1482.23	209.893
1483.16	211.237
1484.1	211.203
1485.03	211.393
1485.97	211.327
1486.9	211.513
1487.84	211.028
1488.77	212.114
1489.7	210.737
1490.64	209.498
1491.57	207.343
1492.5	204.745
1493.44	201.388
1494.37	199.38
1495.3	196.667
1496.23	196.621
1497.16	198.479
1498.09	200.14
1499.02	204.935
1499.96	206.749
1500.89	208.649
1501.82	209.548
1502.75	205.888
1503.68	203.693
1504.61	202.736
1505.53	203.03
1506.46	204.368
1507.39	205.285
1508.32	206.298
1509.25	207.676
1510.18	209.415
1511.1	211.151
1512.03	213.133
1512.96	215.494
1513.88	218.303
1514.81	221.536
1515.74	225.328
1516.66	228.886
1517.59	232.315
1518.51	235.028
1519.44	237.775
1520.36	239.948
1521.29	241.868
1522.21	242.817
1523.14	243.033
1524.06	243.105
1524.98	242.804
1525.91	242.085
1526.83	240.703
1527.75	238.945
1528.68	236.704
1529.6	234.11
1530.52	230.989
1531.44	227.998
1532.36	225.436
1533.29	222.951
1534.21	219.614
1535.13	216.43
1536.05	213.49
1536.97	210.356
1537.89	207.793
1538.81	204.411
1539.73	200.946
1540.65	198.059
1541.56	195.794
1542.48	193.564
1543.4	192.258
1544.32	191.25
1545.24	190.348
1546.16	189.55
1547.07	189.111
1547.99	188.783
1548.91	188.103
1549.82	187.702
1550.74	187
1551.66	186.102
1552.57	185.083
1553.49	184.32
1554.4	183.198
1555.32	182.345
1556.23	181.34
1557.15	180.389
1558.06	179.098
1558.97	178.113
1559.89	176.818
1560.8	175.837
1561.71	174.968
1562.63	174.982
1563.54	173.981
1564.45	173.439
1565.36	172.407
1566.28	171.287
1567.19	169.739
1568.1	168.321
1569.01	166.997
1569.92	165.719
1570.83	164.274
1571.74	163.115
1572.65	162.055
1573.56	161.37
1574.47	161.328
1575.38	161.939
1576.29	162.559
1577.2	163.638
1578.11	164.785
1579.01	165.91
1579.92	166.156
1580.83	166.309
1581.74	166.058
1582.64	165.571
1583.55	164.707
1584.46	164.156
1585.36	163.518
1586.27	162.967
1587.18	162.625
1588.08	162.244
1588.99	161.95
1589.89	161.506
1590.8	160.968
1591.7	160.082
1592.61	158.901
1593.51	157.893
1594.41	156.939
1595.32	156.599
1596.22	156.206
1597.12	155.907
1598.03	155.809
1598.93	156.103
1599.83	156.259
1600.73	156.256
1601.64	156.719
1602.54	157.429
1603.44	158.072
1604.34	158.47
1605.24	158.824
1606.14	158.842
1607.04	158.511
1607.94	158.003
1608.84	156.723
1609.74	155.486
1610.64	154.428
1611.54	153.66
1612.44	152.639
1613.33	151.86
1614.23	151.515
1615.13	151.504
1616.03	151.175
1616.92	151.071
1617.82	151.681
1618.72	151.005
1619.61	150.749
1620.51	150.54
1621.41	150.518
1622.3	150.618
1623.2	150.929
1624.09	151.414
1624.99	151.872
1625.88	152.27
1626.78	151.797
1627.67	150.56
1628.57	149.579
1629.46	148.557
1630.35	147.476
1631.25	146.697
1632.14	146.029
1632.85	145.815
1633.78	145.087
1634.71	144.65
1635.64	144.264
1636.57	143.799
1637.5	143.296
1638.42	143.077
1639.35	143.037
1640.28	143.442
1641.21	144.099
1642.13	144.289
1643.06	144.424
1643.99	144.579
1644.91	144.424
1645.84	144.189
1646.77	143.658
1647.69	142.734
1648.62	142.281
1649.54	141.473
1650.47	141.095
1651.39	140.912
1652.32	141.027
1653.24	141.301
1654.17	141.434
1655.09	141.84
1656.01	142.095
1656.94	142.752
1657.86	143.196
1658.78	143.621
1659.71	143.61
1660.63	143.515
1661.55	143.663
1662.47	144.201
1663.4	144.75
1664.32	145.198
1665.24	145.426
1666.16	145.7
1667.08	145.583
1668	144.807
1668.92	144.064
1669.84	143.217
1670.76	142.16
1671.68	141.444
1672.6	140.793
1673.52	140.718
1674.44	139.117
1675.36	137.702
1676.28	136.961
1677.2	135.832
1678.12	135.925
1679.03	136.249
1679.95	136.818
1680.87	136.932
1681.79	137.081
1682.7	136.853
1683.62	136.462
1684.54	136.225
1685.45	135.574
1686.37	135.221
1687.29	135.129
1688.2	134.836
1689.12	134.792
1690.03	134.713
1690.95	134.381
1691.86	133.944
1692.78	133.721
1693.69	133.919
1694.61	134.617
1695.52	134.29
1696.43	134.081
1697.35	133.392
1698.26	133.019
1699.17	132.444
1700.09	132.452
1701	132.415
1701.91	132.45
1702.82	133.138
1703.74	131.651
1704.65	130.72
1705.56	130.007
1706.47	129.442
1707.38	129.055
1708.29	128.606
1709.2	128.326
1710.11	127.985
1711.02	128.261
1711.93	128.769
1712.84	129.305
1713.75	129.976
1714.66	129.306
1715.57	128.479
1716.48	128.275
1717.39	128.221
1718.3	128.675
1719.21	128.6
1720.11	128.418
1721.02	127.783
1721.93	126.991
1722.84	126.001
1723.74	125.237
1724.65	123.965
1725.56	122.964
1726.46	122.225
1727.37	121.261
1728.28	120.328
1729.18	119.993
1730.09	119.757
1730.99	119.446
1731.9	119.109
1732.8	119.17
1733.71	119.914
1734.61	120.972
1735.52	121.288
1736.42	121.973
1737.32	122.555
1738.23	123.814
1739.13	124.954
1740.03	125.724
1740.94	125.812
1741.84	125.968
1742.74	125.864
1743.64	124.766
1744.54	124.475
1745.45	124.155
1746.35	123.76
1747.25	123.022
1748.15	122.331
1749.05	121.418
1749.95	120.518
1750.85	119.887
1751.75	119.324
1752.65	119.492
1753.55	119.15
1754.45	119.046
1755.35	119.172
1756.25	119.12
1757.15	118.965
1758.05	118.959
1758.94	118.659
1759.84	118.421
1760.74	118.286
1761.64	117.924
1762.53	117.752
1763.43	117.238
1764.33	116.501
1765.23	115.914
1766.12	115.469
1767.02	114.568
1767.91	114.099
1768.81	113.808
1769.71	113.6
1770.6	113.715
1771.5	113.999
1772.39	114.441
1773.29	114.314
1774.18	114.137
1775.07	113.945
1775.97	113.578
1776.86	113.776
1777.76	113.992
1778.65	113.998
1779.54	113.783
1780.44	113.831
1781.33	113.665
1782.22	113.196
1783.11	112.827
1784.01	112.073
1784.9	111.411
1785.79	111.166
1786.68	110.949
1787.57	110.986
1788.46	111.557
1789.35	112.168
1790.24	112.64
1791.13	112.514
1792.02	112.536
1792.91	112.779
1793.8	112.965
1794.69	112.781
1795.58	112.768
1796.47	111.488
1797.36	109.454
1798.25	107.873
1799.14	106.067
