Acq. time (s)=	15
Accumulations=	2
Range (cm-¹)=	600...1800
Windows=	2
Autofocus=	Off
AutoExposure=	Off
Spike filter=	Multiple accum.
Delay time (s)=	1
Binning=	1
Readout mode=	Signal
DeNoise=	Standard
ICS correction=	Off
Dark correction=	Off
Inst. Process=	Off
Instrument=	XploRA
Detector=	Syncerity
Objective=	x20LWD
Grating=	1200 gr/mm
Filter=	25%
Laser (nm)=	785 
Slit (µm)=	100 
Hole (µm)=	300 
Laser pol=	None
Raman pol=	None
Output=	Camera
StageXY=	Marzhauser
StageZ=	
X (µm)=	1891.6
Y (µm)=	118.5
Project=	
Sample=	
Site=	
Title=	To8
Remark=	
Date=	28.10.2022 21:26
Acquired=	28.10.2022 21:26:15
600.839	573.723
602.009	583.122
603.178	589.599
604.347	592.514
605.516	597.459
606.684	604.952
607.852	613.51
609.02	616.369
610.187	627.561
611.355	638.805
612.521	650.065
613.688	660.92
614.854	670.481
616.02	672.88
617.185	681.538
618.351	689.616
619.516	694.928
620.681	698.578
621.846	700.297
623.009	702.749
624.174	705.886
625.337	706.218
626.501	707.218
627.664	707.937
628.826	708.455
629.988	709.026
631.151	710.006
632.313	712.08
633.474	712.766
634.635	714.856
635.797	717.7
636.958	719.668
638.117	722.291
639.278	721.721
640.437	717.054
641.597	714.099
642.756	711.483
643.915	709.076
645.074	709.107
646.233	709.799
647.391	711.2
648.548	712.105
649.706	712.782
650.863	709.029
652.02	705.16
653.176	703.103
654.333	702.374
655.489	700.924
656.645	699.843
657.8	701.58
658.955	703.91
660.11	706.479
661.264	709.377
662.419	712.127
663.573	716.118
664.727	716.659
665.88	717.228
667.033	717.623
668.186	717.948
669.338	717.873
670.491	717.637
671.643	717.322
672.794	716.706
673.945	716.053
675.096	715.461
676.247	714.934
677.398	714.736
678.548	714.97
679.698	715.157
680.847	715.46
681.997	715.831
683.146	716.283
684.294	716.927
685.443	717.599
686.591	718.422
687.739	718.692
688.887	719.101
690.034	720.264
691.181	720.865
692.328	718.319
693.474	714.364
694.62	710.959
695.766	708.049
696.911	704.954
698.057	701.938
699.202	699.791
700.346	698.08
701.49	697.889
702.635	697.6
703.779	697.431
704.922	697.608
706.065	697.317
707.208	695.089
708.351	692.727
709.493	690.944
710.635	689.498
711.776	688.463
712.918	688.363
714.059	686.763
715.2	684.536
716.341	683.115
717.481	681.847
718.621	680.219
719.761	678.807
720.9	678.338
722.04	678.739
723.178	681.726
724.317	679.825
725.455	678.101
726.594	676.876
727.731	676.137
728.868	675.939
730.005	676.542
731.142	677.546
732.279	679.069
733.415	680.998
734.551	683.506
735.686	686.953
736.822	690.373
737.957	692.719
739.092	692.824
740.226	692.48
741.36	691.439
742.495	690.007
743.628	687.972
744.762	685.667
745.895	683.082
747.027	680.098
748.16	676.909
749.292	673.249
750.423	669.144
751.555	664.898
752.686	660.573
753.817	656.608
754.949	653.809
756.079	651.784
757.209	649.908
758.339	648.275
759.469	646.471
760.597	644.374
761.727	642.502
762.856	640.605
763.984	638.636
765.112	637.28
766.24	634.453
767.367	632.425
768.494	630.915
769.622	628.892
770.749	628.018
771.874	626.967
773.001	626.125
774.127	625.04
775.253	624.483
776.377	623.48
777.503	622.141
778.627	620.873
779.751	618.635
780.876	615.532
782	612.512
783.123	609.564
784.246	606.784
785.37	604.475
786.492	602.353
787.614	600.467
788.737	598.902
789.858	597.445
790.979	596.201
792.101	595.411
793.222	594.853
794.342	593.531
795.463	592.05
796.583	591.082
797.702	590.493
798.822	590.678
799.942	589.056
801.06	587.253
802.179	585.814
803.297	582.865
804.415	581.084
805.533	579.77
806.651	578.828
807.768	578.202
808.885	576.179
810.001	573.91
811.118	571.903
812.233	569.98
813.349	568.82
814.464	567.711
815.58	566.78
816.695	566.255
817.809	565.968
818.924	565.522
820.038	565.478
821.152	565.616
822.265	565.844
823.378	565.216
824.491	564.834
825.604	564.107
826.716	563.597
827.828	562.772
828.94	562.276
830.051	560.666
831.162	559.184
832.273	557.822
833.383	556.461
834.494	555.413
835.604	554.561
836.714	553.904
837.823	553.369
838.932	554.107
840.041	553.869
841.15	552.917
842.258	552.913
843.366	553.367
844.474	553.43
845.581	553.016
846.688	552.522
847.795	551.268
848.901	549.835
850.008	546.62
851.115	543.246
852.22	539.669
853.325	536.159
854.43	533.719
855.536	531.683
856.64	529.926
857.745	528.397
858.848	527.461
859.952	526.759
861.055	526.214
862.158	525.563
863.261	524.777
864.364	523.818
865.466	522.684
866.568	521.07
867.67	519.843
868.771	518.06
869.873	516.343
870.973	516.118
872.074	514.766
873.174	513.22
874.274	511.917
875.374	510.381
876.473	508.737
877.572	506.628
878.671	504.621
879.77	502.707
880.868	500.927
881.966	499.181
883.064	497.824
884.161	497.389
885.258	496.85
886.356	496.353
887.452	495.952
888.548	495.804
889.645	495.972
890.74	496.305
891.836	495.91
892.931	495.089
894.025	494.271
895.12	493.998
896.214	493.804
897.308	493.81
898.402	494.958
899.495	495.738
900.588	497.541
901.681	499.364
902.774	501.028
903.866	500.855
904.958	501.484
906.05	502.795
907.142	504.081
908.233	505.532
909.324	505.813
910.414	505.116
911.504	504.79
912.594	504.848
913.684	503.042
914.774	500.854
915.863	498.568
916.952	495.693
918.041	492.612
919.129	490.159
920.217	485.741
921.305	481.786
922.392	478.116
923.48	474.666
924.567	471.534
925.653	468.887
926.74	466.633
927.825	463.43
928.911	460.997
929.997	459.777
931.082	458.447
932.166	457.684
933.252	457.742
934.336	457.857
935.42	457.401
936.504	457.579
937.587	458.201
938.671	457.236
939.753	456.119
940.836	453.625
941.919	452.805
943	451.321
944.082	449.052
945.163	446.246
946.245	443.374
947.326	440.624
948.406	438.41
949.487	436.434
950.567	434.911
951.647	433.747
952.727	433.188
953.805	433.208
954.885	433.554
955.964	434.517
957.042	435.642
958.12	436.913
959.198	438.11
960.276	439.294
961.352	439.638
962.43	439.251
963.507	438.875
964.583	439.049
965.659	439.128
966.735	439.052
967.81	438.634
968.885	438.386
969.961	437.738
971.036	437.255
972.11	436.829
973.184	437.296
974.258	438.296
975.332	439.664
976.405	440.677
977.478	441.576
978.551	442.587
979.624	443.341
980.696	444.734
981.767	445.444
982.839	445.834
983.911	445.405
984.982	444.898
986.052	444.514
987.123	443.868
988.193	443.249
989.263	442.738
990.333	442.296
991.403	442.061
992.471	442.053
993.54	442.271
994.608	443.902
995.677	445.237
996.745	443.965
997.812	441.993
998.88	439.814
999.947	436.797
1001.01	432.348
1002.08	429.092
1003.15	425.592
1004.21	421.922
1005.28	418.091
1006.34	415.442
1007.41	412.54
1008.47	408.998
1009.54	406.173
1010.6	407.278
1011.67	406.509
1012.73	405.939
1013.79	405.292
1014.86	404.765
1015.92	404.075
1016.98	401.949
1018.05	399.755
1019.11	396.861
1020.17	394.019
1021.23	391.137
1022.29	387.893
1023.35	384.362
1024.41	381.773
1025.47	379.742
1026.53	377.217
1027.59	375.126
1028.65	373.291
1029.71	372.163
1030.77	371.591
1031.83	371.78
1032.89	371.852
1033.95	373.109
1035	373.92
1036.06	374.09
1037.12	374.444
1038.18	375.327
1039.23	376.589
1040.29	377.505
1041.35	377.97
1042.4	378.438
1043.46	378.644
1044.51	379.178
1045.57	379.319
1046.62	379.491
1047.68	378.798
1048.73	377.709
1049.79	376.766
1050.84	375.96
1051.89	375.061
1052.95	374.217
1054	373.001
1055.05	372.384
1056.1	371.961
1057.16	371.561
1058.21	371.345
1059.26	370.709
1060.31	368.34
1061.36	366.073
1062.41	365.428
1063.46	365.008
1064.51	365.01
1065.56	365.172
1066.61	365.47
1067.66	365.65
1068.71	365.767
1069.76	365.009
1070.81	362.521
1071.85	360.143
1072.9	358.158
1073.95	355.894
1075	354.792
1076.04	354.245
1077.09	354.021
1078.14	353.593
1079.18	352.811
1080.23	351.526
1081.27	350.093
1082.32	348.059
1083.36	346.614
1084.41	345.087
1085.45	343.828
1086.5	342.669
1087.54	341.636
1088.59	340.701
1089.63	339.246
1090.67	337.281
1091.71	335.685
1092.76	334.436
1093.8	333.882
1094.84	333.787
1095.88	334.287
1096.92	335.27
1097.97	336.661
1099.01	338.118
1100.05	339.484
1101.09	340.715
1102.13	340.161
1103.17	339.835
1104.21	339.476
1105.25	339.483
1106.28	340.61
1107.32	341.085
1108.36	340.415
1109.4	339.623
1110.44	338.972
1111.47	338.235
1112.51	336.432
1113.55	335.212
1114.59	333.691
1115.62	331.825
1116.66	330.564
1117.69	329.063
1118.73	327.883
1119.77	327.222
1120.8	327.309
1121.84	327.85
1122.87	328.079
1123.9	328.846
1124.94	328.571
1125.97	326.626
1127	325.847
1128.04	325.718
1129.07	326.401
1130.1	327.656
1131.13	329.731
1132.17	332.398
1133.2	335.982
1134.23	338.304
1135.26	340.339
1136.29	343.356
1137.32	346.324
1138.35	348.532
1139.38	350.928
1140.41	352.704
1141.44	354.943
1142.47	356.562
1143.5	358.13
1144.53	360.03
1145.56	361.181
1146.59	363.181
1147.61	361.564
1148.64	365.802
1149.67	371.243
1150.7	379.26
1151.72	384.983
1152.75	389.978
1153.77	393.879
1154.8	394.256
1155.83	392.383
1156.85	380.832
1157.88	374.496
1158.9	367.144
1159.93	359.51
1160.95	347.976
1161.97	337.613
1163	333.324
1164.02	329.712
1165.04	324.795
1166.07	319.458
1167.09	319.178
1168.11	317.759
1169.13	316.556
1170.16	316.933
1171.18	317.4
1172.2	319.401
1173.22	320.83
1174.24	322.415
1175.26	324.266
1176.28	326.222
1177.3	327.716
1178.32	329.161
1179.34	330.536
1180.36	331.578
1181.38	332.533
1182.4	333.261
1183.41	333.616
1184.43	333.698
1185.45	333.303
1186.47	332.569
1187.48	331.416
1188.5	329.892
1189.52	326.648
1190.53	322.264
1191.55	317.614
1192.56	312.77
1193.58	308.217
1194.59	303.842
1195.61	299.906
1196.62	296.6
1197.64	294.318
1198.65	293.359
1199.67	292.234
1200.68	291.654
1201.69	290.889
1202.71	290.748
1203.72	291.409
1204.73	292.752
1205.74	293.623
1206.76	294.438
1207.77	295.637
1208.78	296.438
1209.79	296.797
1210.8	297.966
1211.81	298.898
1212.82	299.051
1213.83	300.348
1214.84	301.269
1215.85	303.363
1216.86	305.016
1217.87	306.387
1218.88	306.876
1219.88	306.448
1220.89	305.787
1221.9	304.419
1222.91	302.519
1223.92	300.503
1224.92	298.615
1225.93	296.592
1226.93	294.981
1227.94	292.472
1228.95	288.961
1229.95	285.331
1230.96	282.128
1231.96	279.238
1232.97	276.519
1233.97	274.15
1234.98	272.248
1235.98	270.787
1236.98	269.812
1237.99	269.437
1238.99	269.567
1239.99	269.991
1241	268.858
1242	267.96
1243	266.892
1244	265.976
1245	265.065
1246	263.459
1247.01	262.477
1248.01	261.8
1249.01	261.211
1250.01	260.759
1251.01	261.089
1252.01	261.752
1253	261.315
1254	260.654
1255	260.627
1256	261.059
1257	262.077
1258	261.79
1258.99	262.013
1259.99	262.377
1260.99	262.319
1261.99	262.735
1262.98	262.382
1263.98	261.517
1264.98	260.729
1265.97	259.085
1266.97	257.514
1267.96	255.69
1268.96	253.51
1269.95	251.115
1270.95	248.155
1271.94	245.545
1272.93	243.512
1273.93	242.517
1274.92	242.383
1275.91	243.176
1276.91	244.879
1277.9	247.589
1278.89	251.483
1279.88	256.511
1280.87	259.141
1281.87	261.368
1282.86	263.126
1283.85	264.252
1284.84	264.585
1285.83	264.261
1286.82	263.391
1287.81	261.886
1288.8	259.193
1289.79	256.073
1290.78	253.697
1291.76	251.286
1292.75	248.661
1293.74	246.851
1294.73	245.668
1295.72	244.723
1296.7	244.063
1297.69	244.594
1298.68	244.716
1299.66	244.958
1300.65	244.988
1301.64	244.896
1302.62	244.698
1303.61	244.345
1304.59	243.898
1305.58	243.223
1306.56	242.372
1307.55	241.144
1308.53	239.679
1309.51	237.951
1310.5	234.149
1311.48	232.771
1312.46	231.123
1313.45	230.144
1314.43	230.368
1315.41	231.983
1316.39	234.662
1317.38	238.505
1318.36	242.856
1319.34	247.251
1320.32	250.639
1321.3	255.616
1322.28	259.895
1323.26	261.309
1324.24	262.971
1325.22	261.614
1326.2	260.607
1327.18	259.695
1328.16	256.145
1329.13	252.677
1330.11	248.452
1331.09	244.369
1332.07	240.239
1333.04	235.762
1334.02	231.638
1335	228.184
1335.97	225.469
1336.95	223.838
1337.93	223.499
1338.9	225.433
1339.88	225.75
1340.85	226.332
1341.83	226.644
1342.8	226.534
1343.78	226.162
1344.75	225.699
1345.72	225.02
1346.7	224.842
1347.67	224.64
1348.65	224.401
1349.62	224.029
1350.59	223.525
1351.56	222.298
1352.53	220.692
1353.51	218.928
1354.48	216.841
1355.45	214.793
1356.42	212.97
1357.39	211.287
1358.36	209.763
1359.33	208.473
1360.3	207.438
1361.27	206.584
1362.24	205.953
1363.21	205.477
1364.18	205.254
1365.14	205.193
1366.11	205.424
1367.08	205.473
1368.05	205.186
1369.02	204.829
1369.98	203.726
1370.95	203.407
1371.92	203.332
1372.88	203.35
1373.85	203.534
1374.81	204.278
1375.78	205.18
1376.74	205.715
1377.71	205.867
1378.68	206.403
1379.64	206.26
1380.6	206.048
1381.57	205.374
1382.53	205.216
1383.49	204.631
1384.46	203.629
1385.42	203.605
1386.38	203.272
1387.34	203.225
1388.31	203.368
1389.27	203.371
1390.23	203.862
1391.19	204.105
1392.15	203.826
1393.11	204.049
1394.07	203.702
1395.03	202.939
1395.99	202.099
1396.95	201.046
1397.91	199.955
1398.87	198.17
1399.83	196.201
1400.79	194.52
1401.75	193.138
1402.7	192.388
1403.66	192.054
1404.62	191.62
1405.58	191.154
1406.53	190.553
1407.49	191.281
1408.45	192.258
1409.4	191.586
1410.36	190.952
1411.31	190.363
1412.27	189.836
1413.23	189.36
1414.18	188.966
1415.13	188.603
1416.09	188.286
1417.04	188.013
1418	187.918
1418.95	187.727
1419.9	187.528
1420.86	187.016
1421.81	186.562
1422.76	186.303
1423.71	186.082
1424.67	186.839
1425.62	188.016
1426.57	189.83
1427.52	191.935
1428.47	191.66
1429.42	191.543
1430.37	191.544
1431.32	191.691
1432.27	191.908
1433.22	192.203
1434.17	193.975
1435.12	195.445
1436.07	195.668
1437.02	194.91
1437.96	194.009
1438.91	193.143
1439.86	192.262
1440.81	191.375
1441.75	190.569
1442.7	189.756
1443.65	189.021
1444.59	187.995
1445.54	186.375
1446.49	185.613
1447.43	184.65
1448.38	184.251
1449.32	184.087
1450.27	184.367
1451.21	184.743
1452.15	184.01
1453.1	182.682
1454.04	181.064
1454.98	179.267
1455.93	177.394
1456.87	175.577
1457.81	173.755
1458.76	172.474
1459.7	171.129
1460.64	170.103
1461.58	168.883
1462.52	168.868
1463.46	169.595
1464.4	171.241
1465.34	173.081
1466.28	174.345
1467.22	174.22
1468.16	174.167
1469.1	174.458
1470.04	174.055
1470.98	173.697
1471.92	173.079
1472.86	172.418
1473.8	171.848
1474.73	171.547
1475.67	171.63
1476.61	171.523
1477.55	170.774
1478.48	171.091
1479.42	172.895
1480.36	173.217
1481.29	175.064
1482.23	174.756
1483.16	174.242
1484.1	174.135
1485.03	173.953
1485.97	173.697
1486.9	173.858
1487.84	174.942
1488.77	175.173
1489.7	171.304
1490.64	170.196
1491.57	170.085
1492.5	170.526
1493.44	171.198
1494.37	171.648
1495.3	170.448
1496.23	170.222
1497.16	170.081
1498.09	169.499
1499.02	168.769
1499.96	168.514
1500.89	168.684
1501.82	168.928
1502.75	168.68
1503.68	169.115
1504.61	169.253
1505.53	169.996
1506.46	171.339
1507.39	173.723
1508.32	176.126
1509.25	178.907
1510.18	182.339
1511.1	186.66
1512.03	192.305
1512.96	197.678
1513.88	203.572
1514.81	209.495
1515.74	215.09
1516.66	220.295
1517.59	224.884
1518.51	229.08
1519.44	232.905
1520.36	236.665
1521.29	239.265
1522.21	241.729
1523.14	243.045
1524.06	243.512
1524.98	243.122
1525.91	241.536
1526.83	239.76
1527.75	236.798
1528.68	232.219
1529.6	227.114
1530.52	221.364
1531.44	215.988
1532.36	210.373
1533.29	205.149
1534.21	200.205
1535.13	194.187
1536.05	188.421
1536.97	183.701
1537.89	178.935
1538.81	174.337
1539.73	170.516
1540.65	168.172
1541.56	167.646
1542.48	166.59
1543.4	165.857
1544.32	165.759
1545.24	166.989
1546.16	168.411
1547.07	169.797
1547.99	170.976
1548.91	171.871
1549.82	171.248
1550.74	169.746
1551.66	168.341
1552.57	166.607
1553.49	164.8
1554.4	163.019
1555.32	161.402
1556.23	159.822
1557.15	158.064
1558.06	156.421
1558.97	155.038
1559.89	153.56
1560.8	152.048
1561.71	150.369
1562.63	149.05
1563.54	147.547
1564.45	146.067
1565.36	144.776
1566.28	143.609
1567.19	142.532
1568.1	141.409
1569.01	140.617
1569.92	139.761
1570.83	138.921
1571.74	138.66
1572.65	138.992
1573.56	139.12
1574.47	139.252
1575.38	139.615
1576.29	140.338
1577.2	140.631
1578.11	140.966
1579.01	141.136
1579.92	141.293
1580.83	141.07
1581.74	140.511
1582.64	140.112
1583.55	140.049
1584.46	139.739
1585.36	139.879
1586.27	139.907
1587.18	139.506
1588.08	139.414
1588.99	139.489
1589.89	139.72
1590.8	139.758
1591.7	139.735
1592.61	139.945
1593.51	140.495
1594.41	140.946
1595.32	141.449
1596.22	142.281
1597.12	143.533
1598.03	145.087
1598.93	146.742
1599.83	148.359
1600.73	149.071
1601.64	149.51
1602.54	149.682
1603.44	149.768
1604.34	149.754
1605.24	149.31
1606.14	148.633
1607.04	147.7
1607.94	147.084
1608.84	146.588
1609.74	145.969
1610.64	145.241
1611.54	143.561
1612.44	141.553
1613.33	139.81
1614.23	138.447
1615.13	137.98
1616.03	137.99
1616.92	138
1617.82	138.392
1618.72	138.738
1619.61	139.53
1620.51	139.146
1621.41	138.588
1622.3	138.219
1623.2	137.949
1624.09	137.821
1624.99	138.105
1625.88	138.66
1626.78	138.653
1627.67	138.021
1628.57	137.574
1629.46	137.259
1630.35	136.977
1631.25	136.925
1632.14	136.972
1632.85	136.71
1633.78	136.332
1634.71	135.938
1635.64	135.567
1636.57	135.231
1637.5	134.901
1638.42	134.624
1639.35	134.331
1640.28	133.045
1641.21	132.116
1642.13	130.868
1643.06	129.603
1643.99	128.935
1644.91	128.309
1645.84	127.648
1646.77	127.591
1647.69	126.851
1648.62	127.594
1649.54	128.042
1650.47	128.721
1651.39	129.208
1652.32	129.459
1653.24	129.653
1654.17	129.789
1655.09	129.78
1656.01	129.575
1656.94	129.538
1657.86	128.915
1658.78	127.949
1659.71	127.32
1660.63	126.619
1661.55	126.272
1662.47	126.045
1663.4	126.059
1664.32	126.528
1665.24	127.969
1666.16	128.295
1667.08	128.187
1668	127.833
1668.92	127.664
1669.84	127.135
1670.76	126.638
1671.68	125.942
1672.6	125.27
1673.52	124.57
1674.44	123.911
1675.36	123.242
1676.28	122.634
1677.2	122.008
1678.12	121.446
1679.03	120.875
1679.95	120.598
1680.87	120.391
1681.79	120.566
1682.7	120.636
1683.62	120.255
1684.54	119.37
1685.45	118.471
1686.37	118.056
1687.29	118.371
1688.2	118.76
1689.12	119.209
1690.03	119.422
1690.95	119.049
1691.86	118.666
1692.78	118.327
1693.69	118.044
1694.61	117.724
1695.52	117.497
1696.43	117.627
1697.35	117.734
1698.26	117.911
1699.17	117.803
1700.09	116.61
1701	115.513
1701.91	114.677
1702.82	114.102
1703.74	114.108
1704.65	114.846
1705.56	115.617
1706.47	114.556
1707.38	113.354
1708.29	111.067
1709.2	109.584
1710.11	109.284
1711.02	109.691
1711.93	110.33
1712.84	111.08
1713.75	111.794
1714.66	112.761
1715.57	113.966
1716.48	114.775
1717.39	113.981
1718.3	113.62
1719.21	113.146
1720.11	112.307
1721.02	111.686
1721.93	110.97
1722.84	110.459
1723.74	110.299
1724.65	109.856
1725.56	109.558
1726.46	108.837
1727.37	108.533
1728.28	108.012
1729.18	108.179
1730.09	108.569
1730.99	108.444
1731.9	108.471
1732.8	108.321
1733.71	108.022
1734.61	107.943
1735.52	108.051
1736.42	108.091
1737.32	107.885
1738.23	107.24
1739.13	106.701
1740.03	106.365
1740.94	105.902
1741.84	105.508
1742.74	105.119
1743.64	104.715
1744.54	104.438
1745.45	103.9
1746.35	101.761
1747.25	100.988
1748.15	100.457
1749.05	99.6968
1749.95	99.406
1750.85	98.9611
1751.75	99.3301
1752.65	100.366
1753.55	101.066
1754.45	102.227
1755.35	103.033
1756.25	103.312
1757.15	103.68
1758.05	103.461
1758.94	102.985
1759.84	102.223
1760.74	100.799
1761.64	96.2516
1762.53	98.0739
1763.43	99.4508
1764.33	101.108
1765.23	103.08
1766.12	105.396
1767.02	104.4
1767.91	103.305
1768.81	102.307
1769.71	101.8
1770.6	101.083
1771.5	100.73
1772.39	100.168
1773.29	100.208
1774.18	100.211
1775.07	99.6036
1775.97	99.0177
1776.86	98.1065
1777.76	97.3137
1778.65	96.7244
1779.54	96.0501
1780.44	95.2365
1781.33	94.8709
1782.22	94.2988
1783.11	93.7059
1784.01	93.1766
1784.9	92.8506
1785.79	92.5225
1786.68	92.3345
1787.57	92.3299
1788.46	92.3674
1789.35	92.6203
1790.24	92.8128
1791.13	93.4489
1792.02	93.7078
1792.91	94.148
1793.8	94.8692
1794.69	95.4822
1795.58	96.5215
1796.47	98.2446
1797.36	99.1756
1798.25	101.024
1799.14	104.372
