Acq. time (s)=	15
Accumulations=	2
Range (cm-¹)=	600...1800
Windows=	2
Autofocus=	Off
AutoExposure=	Off
Spike filter=	Multiple accum.
Delay time (s)=	1
Binning=	1
Readout mode=	Signal
DeNoise=	Standard
ICS correction=	Off
Dark correction=	Off
Inst. Process=	Off
Instrument=	XploRA
Detector=	Syncerity
Objective=	x20LWD
Grating=	1200 gr/mm
Filter=	25%
Laser (nm)=	785 
Slit (µm)=	100 
Hole (µm)=	300 
Laser pol=	None
Raman pol=	None
Output=	Camera
StageXY=	Marzhauser
StageZ=	
X (µm)=	221.3
Y (µm)=	2194.5
Project=	
Sample=	
Site=	
Title=	To2
Remark=	
Date=	29.10.2022 04:42
Acquired=	29.10.2022 04:42:51
600.839	718.578
602.009	732.504
603.178	742.436
604.347	751.28
605.516	760.072
606.684	767.107
607.852	773.714
609.02	779.982
610.187	786.222
611.355	791.914
612.521	797.341
613.688	802.52
614.854	807.42
616.02	812.092
617.185	816.446
618.351	820.557
619.516	824.096
620.681	827.428
621.846	830.594
623.009	833.565
624.174	836.446
625.337	840.47
626.501	844.702
627.664	848.965
628.826	853.166
629.988	857.013
631.151	859.596
632.313	861.961
633.474	863.874
634.635	865.249
635.797	866.597
636.958	867.742
638.117	868.975
639.278	870.585
640.437	872.073
641.597	873.01
642.756	873.566
643.915	873.973
645.074	874.777
646.233	875.702
647.391	877.085
648.548	878.287
649.706	879.639
650.863	880.904
652.02	881.809
653.176	882.402
654.333	882.682
655.489	883.056
656.645	883.594
657.8	884.327
658.955	885.339
660.11	887.007
661.264	888.749
662.419	890.461
663.573	892.047
664.727	893.693
665.88	895.238
667.033	897.121
668.186	899.129
669.338	901.533
670.491	905.043
671.643	909.091
672.794	912.245
673.945	913.896
675.096	914.383
676.247	914.465
677.398	914.153
678.548	913.521
679.698	912.979
680.847	912.184
681.997	911.127
683.146	909.814
684.294	908.417
685.443	906.658
686.591	904.714
687.739	902.726
688.887	900.694
690.034	899.114
691.181	898.686
692.328	898.284
693.474	897.952
694.62	897.671
695.766	897.244
696.911	897.066
698.057	897.556
699.202	898.358
700.346	899.386
701.49	900.484
702.635	901.466
703.779	901.401
704.922	900.786
706.065	899.876
707.208	899.891
708.351	900.744
709.493	901.532
710.635	901.909
711.776	900.965
712.918	899.579
714.059	896.842
715.2	893.603
716.341	890.787
717.481	888.529
718.621	886.897
719.761	884.92
720.9	883.181
722.04	880.942
723.178	878.573
724.317	876.226
725.455	874.31
726.594	872.756
727.731	871.889
728.868	871.365
730.005	871.17
731.142	870.591
732.279	870.081
733.415	869.761
734.551	870.37
735.686	873.034
736.822	876.079
737.957	879.4
739.092	882.662
740.226	885.657
741.36	888.55
742.495	890.898
743.628	892.681
744.762	893.541
745.895	893.68
747.027	892.977
748.16	891.337
749.292	887.971
750.423	884.057
751.555	879.823
752.686	876.269
753.817	872.29
754.949	868.422
756.079	864.349
757.209	860.759
758.339	857.475
759.469	854.421
760.597	851.362
761.727	848.254
762.856	844.836
763.984	841.602
765.112	838.795
766.24	836.209
767.367	834.167
768.494	832.564
769.622	830.917
770.749	829.3
771.874	827.582
773.001	825.003
774.127	827.776
775.253	829.938
776.377	831.477
777.503	834.419
778.627	1045.16
779.751	802.748
780.876	818.168
782	817.605
783.123	825.539
784.246	826.07
785.37	816.968
786.492	808.447
787.614	811.411
788.737	813.138
789.858	815.521
790.979	811.082
792.101	809.319
793.222	808.47
794.342	807.493
795.463	805.542
796.583	803.279
797.702	801.041
798.822	798.897
799.942	797.093
801.06	795.549
802.179	794.29
803.297	793.364
804.415	792.962
805.533	793.023
806.651	793.212
807.768	792.969
808.885	788.91
810.001	791.189
811.118	793.532
812.233	796.969
813.349	800.265
814.464	802.835
815.58	802.738
816.695	805.238
817.809	799.346
818.924	791.86
820.038	780.907
821.152	772.848
822.265	765.864
823.378	766.334
824.491	766.293
825.604	772.581
826.716	776.835
827.828	778.795
828.94	778.567
830.051	777.375
831.162	772.71
832.273	770.255
833.383	769.85
834.494	769.668
835.604	769.237
836.714	768.481
837.823	767.596
838.932	766.588
840.041	765.516
841.15	764.156
842.258	762.706
843.366	761.27
844.474	759.904
845.581	758.668
846.688	757.621
847.795	757.024
848.901	756.644
850.008	756.468
851.115	756.326
852.22	756.175
853.325	756.045
854.43	755.794
855.536	755.284
856.64	754.692
857.745	753.88
858.848	752.984
859.952	751.94
861.055	750.608
862.158	748.992
863.261	747.313
864.364	745.454
865.466	743.655
866.568	741.799
867.67	739.979
868.771	738.031
869.873	736.124
870.973	734.391
872.074	732.863
873.174	731.521
874.274	730.46
875.374	729.661
876.473	729.781
877.572	730.358
878.671	731.142
879.77	731.773
880.868	731.68
881.966	731.561
883.064	731.071
884.161	730.467
885.258	729.756
886.356	728.785
887.452	727.599
888.548	726.158
889.645	724.349
890.74	722.297
891.836	720.185
892.931	718.203
894.025	715.801
895.12	713.606
896.214	711.654
897.308	710.172
898.402	709.163
899.495	708.765
900.588	709.416
901.681	710.614
902.774	712.606
903.866	714.984
904.958	717.65
906.05	720.46
907.142	722.966
908.233	725.113
909.324	726.938
910.414	728.923
911.504	730.58
912.594	731.713
913.684	732.153
914.774	731.623
915.863	729.347
916.952	725.486
918.041	721.153
919.129	716.265
920.217	711.792
921.305	707.792
922.392	704.823
923.48	704.82
924.567	697.566
925.653	692.443
926.74	688.475
927.825	685.82
928.911	684.324
929.997	683.932
931.082	685.276
932.166	684.893
933.252	683.212
934.336	681.796
935.42	680.404
936.504	679.253
937.587	678.036
938.671	676.885
939.753	675.753
940.836	674.368
941.919	673.636
943	673.163
944.082	672.164
945.163	670.986
946.245	669.854
947.326	668.701
948.406	667.783
949.487	666.867
950.567	666.17
951.647	665.426
952.727	664.733
953.805	664.13
954.885	663.6
955.964	663.677
957.042	664.16
958.12	664.998
959.198	665.681
960.276	666.268
961.352	666.623
962.43	666.377
963.507	665.816
964.583	664.912
965.659	663.789
966.735	662.362
967.81	660.969
968.885	659.505
969.961	657.973
971.036	656.355
972.11	655.03
973.184	654.04
974.258	653.427
975.332	653.655
976.405	654.383
977.478	657.196
978.551	660.072
979.624	662.804
980.696	665.204
981.767	665.902
982.839	666.516
983.911	666.594
984.982	666.317
986.052	665.059
987.123	663.355
988.193	661.202
989.263	658.734
990.333	656.318
991.403	654.349
992.471	652.386
993.54	649.964
994.608	647.77
995.677	645.863
996.745	646.602
997.812	647.251
998.88	647.846
999.947	647.816
1001.01	647.393
1002.08	646.501
1003.15	645
1004.21	643.127
1005.28	640.687
1006.34	637.894
1007.41	634.645
1008.47	630.529
1009.54	625.824
1010.6	621.153
1011.67	616.67
1012.73	612.564
1013.79	610.393
1014.86	608.415
1015.92	607.264
1016.98	607.341
1018.05	607.873
1019.11	608.633
1020.17	609.505
1021.23	610.084
1022.29	610.358
1023.35	610.74
1024.41	610.841
1025.47	610.901
1026.53	610.783
1027.59	610.484
1028.65	609.939
1029.71	609.116
1030.77	608.098
1031.83	606.825
1032.89	605.178
1033.95	603.034
1035	599.786
1036.06	595.041
1037.12	591.391
1038.18	588.084
1039.23	588.293
1040.29	589.963
1041.35	592.324
1042.4	594.312
1043.46	596.51
1044.51	598.247
1045.57	598.523
1046.62	597.257
1047.68	592.187
1048.73	590.56
1049.79	589.434
1050.84	588.421
1051.89	587.1
1052.95	585.774
1054	583.906
1055.05	581.784
1056.1	579.782
1057.16	577.708
1058.21	575.978
1059.26	574.719
1060.31	574.515
1061.36	574.814
1062.41	575.353
1063.46	575.9
1064.51	576.332
1065.56	576.306
1066.61	576.128
1067.66	576.007
1068.71	575.915
1069.76	575.851
1070.81	576.274
1071.85	576.855
1072.9	577.741
1073.95	577.667
1075	576.805
1076.04	575.458
1077.09	574.314
1078.14	573.268
1079.18	572.415
1080.23	571.908
1081.27	571.297
1082.32	570.317
1083.36	569.248
1084.41	568.131
1085.45	566.907
1086.5	565.784
1087.54	565.321
1088.59	565.428
1089.63	565.605
1090.67	565.801
1091.71	565.846
1092.76	565.857
1093.8	565.417
1094.84	564.282
1095.88	563.245
1096.92	562.068
1097.97	561.037
1099.01	560.006
1100.05	558.48
1101.09	556.707
1102.13	554.127
1103.17	551.911
1104.21	550.306
1105.25	550.562
1106.28	555.905
1107.32	557.355
1108.36	557.19
1109.4	555.935
1110.44	554.287
1111.47	551.932
1112.51	549.124
1113.55	546.534
1114.59	544.182
1115.62	541.994
1116.66	540.21
1117.69	538.972
1118.73	538.745
1119.77	539.026
1120.8	539.66
1121.84	540.651
1122.87	541.594
1123.9	542.62
1124.94	542.935
1125.97	543.252
1127	543.515
1128.04	543.71
1129.07	543.632
1130.1	543.392
1131.13	543.03
1132.17	542.776
1133.2	543.669
1134.23	544.453
1135.26	545.931
1136.29	548.152
1137.32	550.432
1138.35	552.384
1139.38	554.425
1140.41	555.664
1141.44	556.706
1142.47	557.58
1143.5	558.863
1144.53	560.458
1145.56	561.95
1146.59	563.42
1147.61	564.773
1148.64	566.143
1149.67	567.526
1150.7	568.818
1151.72	570.088
1152.75	571.143
1153.77	571.925
1154.8	571.826
1155.83	571.23
1156.85	569.998
1157.88	567.95
1158.9	565.31
1159.93	561.859
1160.95	558.075
1161.97	553.992
1163	549.695
1164.02	545.717
1165.04	542.062
1166.07	538.592
1167.09	535.375
1168.11	532.521
1169.13	530.568
1170.16	529.39
1171.18	528.895
1172.2	528.763
1173.22	528.843
1174.24	529.006
1175.26	528.99
1176.28	528.944
1177.3	528.896
1178.32	528.765
1179.34	528.499
1180.36	527.917
1181.38	527.153
1182.4	526.264
1183.41	525.132
1184.43	524.017
1185.45	522.839
1186.47	521.619
1187.48	520.373
1188.5	519.091
1189.52	517.816
1190.53	516.627
1191.55	515.385
1192.56	514.186
1193.58	512.945
1194.59	511.997
1195.61	511.006
1196.62	510.175
1197.64	509.281
1198.65	508.44
1199.67	507.496
1200.68	506.252
1201.69	504.478
1202.71	502.484
1203.72	500.505
1204.73	498.722
1205.74	497.056
1206.76	495.927
1207.77	495.311
1208.78	495.216
1209.79	495.201
1210.8	495.859
1211.81	496.646
1212.82	498.1
1213.83	499.554
1214.84	500.96
1215.85	502.318
1216.86	503.13
1217.87	503.721
1218.88	503.847
1219.88	503.844
1220.89	503.433
1221.9	502.744
1222.91	501.868
1223.92	500.261
1224.92	498.285
1225.93	496.167
1226.93	493.874
1227.94	491.457
1228.95	489.012
1229.95	486.479
1230.96	484.638
1231.96	482.581
1232.97	480.641
1233.97	478.731
1234.98	476.888
1235.98	475.006
1236.98	473.611
1237.99	472.402
1238.99	471.593
1239.99	470.325
1241	468.902
1242	466.783
1243	465.079
1244	463.681
1245	462.904
1246	462.589
1247.01	461.714
1248.01	460.664
1249.01	459.818
1250.01	459.899
1251.01	460.543
1252.01	461.233
1253	459.27
1254	460.495
1255	461.757
1256	462.952
1257	463.691
1258	464.101
1258.99	464.212
1259.99	463.984
1260.99	463.453
1261.99	462.475
1262.98	461.336
1263.98	459.97
1264.98	458.585
1265.97	457.013
1266.97	455.42
1267.96	453.879
1268.96	452.589
1269.95	452.089
1270.95	451.919
1271.94	452.228
1272.93	452.443
1273.93	452.568
1274.92	452.605
1275.91	452.003
1276.91	451.544
1277.9	451.041
1278.89	450.725
1279.88	450.694
1280.87	450.933
1281.87	453.048
1282.86	455.148
1283.85	455.662
1284.84	455.672
1285.83	455.309
1286.82	454.547
1287.81	453.514
1288.8	452.199
1289.79	450.611
1290.78	448.818
1291.76	446.967
1292.75	444.998
1293.74	443.035
1294.73	441.153
1295.72	439.516
1296.7	438.17
1297.69	437.262
1298.68	436.672
1299.66	436.305
1300.65	436.108
1301.64	435.969
1302.62	435.583
1303.61	435.076
1304.59	434.61
1305.58	434.033
1306.56	433.469
1307.55	432.977
1308.53	432.676
1309.51	432.571
1310.5	432.859
1311.48	433.324
1312.46	433.942
1313.45	434.691
1314.43	435.925
1315.41	437.582
1316.39	439.457
1317.38	441.287
1318.36	443.509
1319.34	445.616
1320.32	447.355
1321.3	448.574
1322.28	449.327
1323.26	449.469
1324.24	448.989
1325.22	447.539
1326.2	445.031
1327.18	442.211
1328.16	439.061
1329.13	435.811
1330.11	432.863
1331.09	430.094
1332.07	427.379
1333.04	425.048
1334.02	423.057
1335	421.39
1335.97	420.58
1336.95	420.574
1337.93	420.651
1338.9	421.204
1339.88	422.03
1340.85	422.823
1341.83	423.483
1342.8	423.631
1343.78	423.635
1344.75	423.482
1345.72	422.296
1346.7	420.57
1347.67	418.677
1348.65	416.447
1349.62	414.909
1350.59	413.567
1351.56	412.309
1352.53	410.949
1353.51	409.76
1354.48	408.216
1355.45	406.257
1356.42	404.166
1357.39	402.141
1358.36	400.101
1359.33	398.968
1360.3	398.783
1361.27	398.667
1362.24	398.826
1363.21	398.888
1364.18	398.518
1365.14	398.169
1366.11	397.82
1367.08	397.723
1368.05	397.57
1369.02	397.492
1369.98	397.453
1370.95	397.518
1371.92	397.12
1372.88	396.189
1373.85	394.996
1374.81	393.893
1375.78	392.948
1376.74	392.872
1377.71	392.998
1378.68	393.58
1379.64	394.24
1380.6	394.885
1381.57	395.392
1382.53	395.725
1383.49	395.615
1384.46	395.322
1385.42	394.828
1386.38	394.022
1387.34	392.834
1388.31	391.6
1389.27	390.33
1390.23	389.067
1391.19	387.629
1392.15	386.814
1393.11	386.461
1394.07	386.234
1395.03	386.093
1395.99	386.116
1396.95	385.985
1397.91	385.909
1398.87	385.472
1399.83	385.208
1400.79	384.985
1401.75	384.802
1402.7	384.604
1403.66	384.432
1404.62	384.274
1405.58	384.128
1406.53	383.924
1407.49	384.111
1408.45	384.309
1409.4	384.471
1410.36	384.733
1411.31	384.729
1412.27	383.968
1413.23	383.064
1414.18	381.693
1415.13	380.09
1416.09	378.354
1417.04	376.389
1418	374.84
1418.95	374.276
1419.9	373.67
1420.86	372.822
1421.81	371.223
1422.76	368.318
1423.71	367.773
1424.67	367.693
1425.62	367.897
1426.57	368.159
1427.52	368.514
1428.47	369.114
1429.42	369.771
1430.37	370.504
1431.32	372.215
1432.27	373.856
1433.22	375.509
1434.17	376.916
1435.12	377.906
1436.07	377.776
1437.02	377.475
1437.96	376.917
1438.91	375.464
1439.86	373.865
1440.81	372.1
1441.75	370.222
1442.7	368.531
1443.65	367.03
1444.59	365.891
1445.54	364.921
1446.49	364.079
1447.43	363.575
1448.38	363.21
1449.32	362.864
1450.27	362.539
1451.21	362.076
1452.15	361.041
1453.1	359.537
1454.04	357.957
1454.98	356.379
1455.93	354.864
1456.87	353.51
1457.81	353.233
1458.76	353.226
1459.7	353.198
1460.64	352.181
1461.58	351.044
1462.52	349.38
1463.46	347.664
1464.4	345.817
1465.34	344.922
1466.28	344.464
1467.22	343.827
1468.16	342.743
1469.1	340.443
1470.04	338.339
1470.98	336.497
1471.92	335.355
1472.86	334.522
1473.8	334.018
1474.73	333.428
1475.67	331.844
1476.61	330.215
1477.55	328.802
1478.48	328.003
1479.42	328.238
1480.36	333.087
1481.29	335.243
1482.23	334.984
1483.16	335.619
1484.1	336.599
1485.03	337.725
1485.97	339.077
1486.9	340.652
1487.84	342.17
1488.77	343.479
1489.7	344.531
1490.64	344.075
1491.57	342.895
1492.5	341.567
1493.44	340.475
1494.37	339.331
1495.3	338.098
1496.23	336.861
1497.16	335.636
1498.09	334.516
1499.02	333.405
1499.96	332.106
1500.89	330.889
1501.82	329.854
1502.75	328.955
1503.68	328.847
1504.61	329.881
1505.53	331.069
1506.46	332.533
1507.39	334.304
1508.32	336.122
1509.25	338.31
1510.18	340.623
1511.1	343.28
1512.03	346.677
1512.96	350.17
1513.88	353.563
1514.81	356.768
1515.74	359.432
1516.66	361.564
1517.59	363.504
1518.51	364.964
1519.44	366.107
1520.36	366.861
1521.29	367.275
1522.21	367.291
1523.14	366.835
1524.06	365.987
1524.98	364.667
1525.91	362.983
1526.83	360.825
1527.75	358.012
1528.68	354.99
1529.6	351.682
1530.52	350.145
1531.44	349.401
1532.36	348.567
1533.29	347.135
1534.21	345.015
1535.13	342.291
1536.05	338.822
1536.97	335.202
1537.89	330.532
1538.81	325.239
1539.73	320.728
1540.65	317.084
1541.56	319.496
1542.48	318.784
1543.4	317.79
1544.32	315.019
1545.24	311.451
1546.16	308.35
1547.07	305.606
1547.99	303.311
1548.91	301.256
1549.82	299.497
1550.74	297.95
1551.66	296.72
1552.57	295.658
1553.49	294.927
1554.4	294.654
1555.32	293.94
1556.23	292.373
1557.15	290.591
1558.06	288.667
1558.97	286.703
1559.89	284.75
1560.8	282.772
1561.71	280.82
1562.63	278.959
1563.54	277.063
1564.45	275.25
1565.36	273.71
1566.28	272.338
1567.19	270.871
1568.1	269.39
1569.01	268.029
1569.92	266.713
1570.83	265.481
1571.74	264.518
1572.65	263.459
1573.56	262.685
1574.47	261.979
1575.38	261.478
1576.29	261.042
1577.2	260.633
1578.11	260.158
1579.01	259.609
1579.92	259.005
1580.83	258.308
1581.74	257.394
1582.64	256.201
1583.55	254.8
1584.46	253.406
1585.36	251.888
1586.27	250.941
1587.18	249.779
1588.08	248.579
1588.99	247.516
1589.89	246.848
1590.8	245.979
1591.7	244.538
1592.61	243.14
1593.51	241.842
1594.41	240.557
1595.32	239.175
1596.22	238.721
1597.12	238.906
1598.03	238.189
1598.93	237.343
1599.83	236.16
1600.73	234.668
1601.64	233.459
1602.54	232.448
1603.44	231.398
1604.34	230.401
1605.24	229.222
1606.14	227.88
1607.04	226.507
1607.94	225.093
1608.84	223.845
1609.74	222.131
1610.64	220.559
1611.54	218.774
1612.44	217.305
1613.33	216.251
1614.23	215.794
1615.13	215.88
1616.03	216.204
1616.92	216.555
1617.82	217.058
1618.72	217.919
1619.61	218.29
1620.51	218.211
1621.41	217.946
1622.3	217.182
1623.2	215.812
1624.09	213.868
1624.99	211.42
1625.88	208.557
1626.78	205.276
1627.67	202.065
1628.57	199.242
1629.46	196.626
1630.35	194.408
1631.25	192.47
1632.14	191.783
1632.85	191.697
1633.78	192.432
1634.71	193.474
1635.64	194.742
1636.57	195.891
1637.5	197.084
1638.42	197.31
1639.35	197.162
1640.28	197.222
1641.21	196.726
1642.13	196.313
1643.06	195.125
1643.99	193.396
1644.91	192.004
1645.84	190.761
1646.77	190.275
1647.69	190.247
1648.62	190.889
1649.54	191.45
1650.47	192.318
1651.39	192.619
1652.32	192.788
1653.24	192.963
1654.17	193.072
1655.09	192.643
1656.01	191.74
1656.94	190.887
1657.86	189.878
1658.78	188.927
1659.71	187.709
1660.63	186.782
1661.55	185.36
1662.47	184.106
1663.4	183.499
1664.32	182.873
1665.24	182.737
1666.16	183.093
1667.08	183.11
1668	183.484
1668.92	183.473
1669.84	183.06
1670.76	183.213
1671.68	183.218
1672.6	183.911
1673.52	184.679
1674.44	185.068
1675.36	185.418
1676.28	185.392
1677.2	184.842
1678.12	184.646
1679.03	183.98
1679.95	183.34
1680.87	182.767
1681.79	182.151
1682.7	181.639
1683.62	181.318
1684.54	181.438
1685.45	181.723
1686.37	181.829
1687.29	181.99
1688.2	182.14
1689.12	182.672
1690.03	182.291
1690.95	181.945
1691.86	181.334
1692.78	180.626
1693.69	179.571
1694.61	178.715
1695.52	176.99
1696.43	175.096
1697.35	173.837
1698.26	172.728
1699.17	171.932
1700.09	172.062
1701	172.253
1701.91	172.792
1702.82	173.68
1703.74	173.969
1704.65	174.699
1705.56	175.059
1706.47	174.718
1707.38	174.76
1708.29	175.033
1709.2	175.657
1710.11	175.974
1711.02	175.948
1711.93	175.373
1712.84	174.739
1713.75	173.794
1714.66	173.323
1715.57	172.542
1716.48	171.535
1717.39	171.176
1718.3	170.262
1719.21	169.375
1720.11	168.739
1721.02	168.45
1721.93	168.467
1722.84	168.831
1723.74	168.449
1724.65	168.599
1725.56	168.673
1726.46	168.496
1727.37	168.458
1728.28	168.016
1729.18	167.281
1730.09	166.979
1730.99	166.958
1731.9	167.462
1732.8	167.633
1733.71	167.525
1734.61	166.803
1735.52	166.276
1736.42	166.251
1737.32	166.442
1738.23	166.807
1739.13	167.283
1740.03	167.47
1740.94	167.318
1741.84	167.286
1742.74	167.335
1743.64	168.085
1744.54	168.386
1745.45	168.278
1746.35	168.009
1747.25	167.742
1748.15	166.292
1749.05	164.897
1749.95	163.78
1750.85	162.665
1751.75	161.64
1752.65	160.687
1753.55	160.005
1754.45	159.952
1755.35	159.856
1756.25	159.738
1757.15	159.647
1758.05	159.772
1758.94	160.046
1759.84	160.294
1760.74	161.079
1761.64	162.345
1762.53	163.281
1763.43	164.432
1764.33	165.188
1765.23	165.385
1766.12	164.961
1767.02	164.607
1767.91	164.455
1768.81	163.791
1769.71	163.184
1770.6	162.266
1771.5	161.429
1772.39	160.469
1773.29	159.787
1774.18	158.694
1775.07	157.792
1775.97	156.807
1776.86	156.039
1777.76	155.874
1778.65	156.042
1779.54	156.385
1780.44	156.964
1781.33	157.879
1782.22	158.378
1783.11	158.693
1784.01	158.9
1784.9	159.363
1785.79	159.848
1786.68	159.907
1787.57	159.961
1788.46	159.465
1789.35	158.606
1790.24	157.351
1791.13	155.611
1792.02	154.302
1792.91	152.919
1793.8	151.387
1794.69	149.596
1795.58	148.305
1796.47	147.065
1797.36	146.49
1798.25	146.173
1799.14	148.374
