Acq. time (s)=	15
Accumulations=	2
Range (cm-¹)=	600...1800
Windows=	2
Autofocus=	Off
AutoExposure=	Off
Spike filter=	Multiple accum.
Delay time (s)=	1
Binning=	1
Readout mode=	Signal
DeNoise=	Standard
ICS correction=	Off
Dark correction=	Off
Inst. Process=	Off
Instrument=	XploRA
Detector=	Syncerity
Objective=	x20LWD
Grating=	1200 gr/mm
Filter=	25%
Laser (nm)=	785 
Slit (µm)=	100 
Hole (µm)=	300 
Laser pol=	None
Raman pol=	None
Output=	Camera
StageXY=	Marzhauser
StageZ=	
X (µm)=	3156.1
Y (µm)=	6926.8
Project=	
Sample=	
Site=	
Title=	To8
Remark=	
Date=	28.10.2022 21:49
Acquired=	28.10.2022 21:49:18
600.839	2218.98
602.009	2234.39
603.178	2254.08
604.347	2272.55
605.516	2288.24
606.684	2302.81
607.852	2317.42
609.02	2331.48
610.187	2344.85
611.355	2358.64
612.521	2372.31
613.688	2385.02
614.854	2394.66
616.02	2403.9
617.185	2407.44
618.351	2416.87
619.516	2428.03
620.681	2440.06
621.846	2454.18
623.009	2465.33
624.174	2473.88
625.337	2480.56
626.501	2486.92
627.664	2492.86
628.826	2491.35
629.988	2495.15
631.151	2498.17
632.313	2501.01
633.474	2503.13
634.635	2505.01
635.797	2506.71
636.958	2508.06
638.117	2506.02
639.278	2503.37
640.437	2503.02
641.597	2499.99
642.756	2490.65
643.915	2476.95
645.074	2464.82
646.233	2453.32
647.391	2441.76
648.548	2436.58
649.706	2432.34
650.863	2432.03
652.02	2429.72
653.176	2442.81
654.333	2445.18
655.489	2446.29
656.645	2446.75
657.8	2431.35
658.955	2430.98
660.11	2431.06
661.264	2431.28
662.419	2431.36
663.573	2431.51
664.727	2432.06
665.88	2433.21
667.033	2434.67
668.186	2437.2
669.338	2440.99
670.491	2444.62
671.643	2447
672.794	2449.36
673.945	2451.9
675.096	2454.36
676.247	2456.71
677.398	2458.58
678.548	2459.3
679.698	2462.9
680.847	2464.24
681.997	2464.34
683.146	2463.56
684.294	2461.99
685.443	2459.73
686.591	2456.64
687.739	2453.28
688.887	2450.17
690.034	2447.52
691.181	2447.5
692.328	2446.26
693.474	2443.36
694.62	2439.49
695.766	2435.17
696.911	2430.47
698.057	2424.7
699.202	2427.96
700.346	2443.61
701.49	2453.55
702.635	2448.48
703.779	2440.32
704.922	2370.36
706.065	2330.54
707.208	2354.2
708.351	2367.2
709.493	2362.4
710.635	2357.25
711.776	2348.21
712.918	2355.92
714.059	2346.92
715.2	2343.96
716.341	2336.48
717.481	2330.13
718.621	2336.91
719.761	2332.57
720.9	2327.63
722.04	2320.78
723.178	2315.11
724.317	2311.7
725.455	2309.14
726.594	2308.07
727.731	2306.54
728.868	2306.31
730.005	2310.13
731.142	2317.8
732.279	2328.2
733.415	2340.74
734.551	2353.57
735.686	2367.49
736.822	2379.95
737.957	2396.37
739.092	2404.4
740.226	2421.92
741.36	2419.34
742.495	2408.4
743.628	2395.63
744.762	2380.71
745.895	2365.4
747.027	2343.99
748.16	2329.14
749.292	2316.65
750.423	2303.8
751.555	2298.91
752.686	2288.76
753.817	2282.04
754.949	2273.15
756.079	2259.34
757.209	2242.77
758.339	2227.07
759.469	2209.92
760.597	2197.51
761.727	2185.75
762.856	2173.9
763.984	2162.13
765.112	2150.33
766.24	2139.99
767.367	2132.1
768.494	2126.71
769.622	2123.29
770.749	2121.85
771.874	2122.5
773.001	2124.3
774.127	2122.1
775.253	2119.79
776.377	2117.11
777.503	2112.09
778.627	2106.5
779.751	2103.38
780.876	2100.67
782	2097.85
783.123	2094.57
784.246	2090.26
785.37	2085.54
786.492	2079.74
787.614	2073.4
788.737	2066.13
789.858	2058.28
790.979	2049.96
792.101	2041.14
793.222	2032.24
794.342	2022.93
795.463	2012.94
796.583	2003.19
797.702	1995.23
798.822	1988.89
799.942	1983.87
801.06	1980.4
802.179	1978.65
803.297	1978.57
804.415	1979.52
805.533	1977.68
806.651	1975.7
807.768	1973.9
808.885	1972.5
810.001	1970.99
811.118	1969.79
812.233	1968.62
813.349	1967.16
814.464	1965.42
815.58	1963.14
816.695	1960.48
817.809	1957.48
818.924	1954.03
820.038	1950.97
821.152	1947.83
822.265	1945.25
823.378	1942.02
824.491	1938.82
825.604	1934.32
826.716	1930.06
827.828	1926.16
828.94	1923.14
830.051	1921.61
831.162	1921.16
832.273	1920.78
833.383	1920.16
834.494	1918.71
835.604	1916.52
836.714	1913.62
837.823	1910.31
838.932	1906.43
840.041	1901.54
841.15	1896.31
842.258	1890.93
843.366	1885.46
844.474	1881.15
845.581	1876.96
846.688	1873.14
847.795	1869.66
848.901	1867.76
850.008	1866.51
851.115	1864.37
852.22	1860.57
853.325	1856.34
854.43	1851.31
855.536	1846.14
856.64	1840.86
857.745	1836.21
858.848	1831.4
859.952	1826.84
861.055	1823.28
862.158	1819.64
863.261	1816.23
864.364	1812.81
865.466	1808.99
866.568	1803.9
867.67	1798.04
868.771	1792.36
869.873	1789.5
870.973	1785.7
872.074	1780.46
873.174	1774.41
874.274	1767.77
875.374	1760.38
876.473	1752.66
877.572	1744.76
878.671	1737.58
879.77	1731.9
880.868	1727.67
881.966	1725.18
883.064	1724.93
884.161	1725.73
885.258	1724.14
886.356	1722.8
887.452	1721.66
888.548	1720.98
889.645	1720.48
890.74	1720.28
891.836	1720.39
892.931	1720.61
894.025	1720.96
895.12	1721.6
896.214	1722.11
897.308	1722.95
898.402	1724.68
899.495	1729.64
900.588	1733.15
901.681	1738.33
902.774	1738.21
903.866	1737.01
904.958	1736.97
906.05	1738.21
907.142	1745.28
908.233	1752.32
909.324	1758.19
910.414	1762.96
911.504	1766.08
912.594	1767.84
913.684	1762.08
914.774	1756.08
915.863	1749.65
916.952	1742.27
918.041	1733.83
919.129	1722.75
920.217	1710.84
921.305	1698.53
922.392	1686.6
923.48	1674.45
924.567	1662.51
925.653	1651.13
926.74	1640.54
927.825	1631.14
928.911	1623.32
929.997	1615.84
931.082	1609.29
932.166	1605.1
933.252	1603.15
934.336	1601.65
935.42	1600.07
936.504	1598.51
937.587	1597.02
938.671	1595.26
939.753	1593.53
940.836	1591.31
941.919	1589.44
943	1587.4
944.082	1585.39
945.163	1583.17
946.245	1580.33
947.326	1575.9
948.406	1570.7
949.487	1565.65
950.567	1564.74
951.647	1565.91
952.727	1568.43
953.805	1570.16
954.885	1570.91
955.964	1565.62
957.042	1551.22
958.12	1542.61
959.198	1535.1
960.276	1529.25
961.352	1532.52
962.43	1530.3
963.507	1529.92
964.583	1526.98
965.659	1524.88
966.735	1523.37
967.81	1522.59
968.885	1522.9
969.961	1524.22
971.036	1526.36
972.11	1530.5
973.184	1535.48
974.258	1537.78
975.332	1538.23
976.405	1533.76
977.478	1542.05
978.551	1552.3
979.624	1564.94
980.696	1581.23
981.767	1593.81
982.839	1601.11
983.911	1602.17
984.982	1595.91
986.052	1582.55
987.123	1568.67
988.193	1554.61
989.263	1544.23
990.333	1563.88
991.403	1566.47
992.471	1568.27
993.54	1564.08
994.608	1561.54
995.677	1559.2
996.745	1556.59
997.812	1553.46
998.88	1550.25
999.947	1546.23
1001.01	1541.49
1002.08	1535.86
1003.15	1528.45
1004.21	1519.65
1005.28	1510.06
1006.34	1499.99
1007.41	1489.76
1008.47	1479.83
1009.54	1469.96
1010.6	1460.12
1011.67	1450.69
1012.73	1441.52
1013.79	1432.24
1014.86	1423.31
1015.92	1414.63
1016.98	1406.95
1018.05	1400.45
1019.11	1395.37
1020.17	1390.53
1021.23	1386.02
1022.29	1381.6
1023.35	1377.66
1024.41	1373.94
1025.47	1370.44
1026.53	1367.36
1027.59	1364.04
1028.65	1360.97
1029.71	1357.3
1030.77	1353.5
1031.83	1350.36
1032.89	1347.62
1033.95	1346.29
1035	1345.5
1036.06	1346.77
1037.12	1348.08
1038.18	1349.64
1039.23	1351.19
1040.29	1351.45
1041.35	1351.79
1042.4	1351.64
1043.46	1350.92
1044.51	1349.45
1045.57	1347.41
1046.62	1344.25
1047.68	1340.28
1048.73	1334.28
1049.79	1327.74
1050.84	1321.03
1051.89	1314.33
1052.95	1308.54
1054	1303.63
1055.05	1299.38
1056.1	1295.9
1057.16	1293.31
1058.21	1290.59
1059.26	1288.43
1060.31	1290.31
1061.36	1293.59
1062.41	1297.42
1063.46	1301.69
1064.51	1304.82
1065.56	1307.65
1066.61	1307.26
1067.66	1301.9
1068.71	1291.64
1069.76	1283.83
1070.81	1275.03
1071.85	1268.58
1072.9	1263.73
1073.95	1260.17
1075	1259.35
1076.04	1258.82
1077.09	1258.53
1078.14	1257.89
1079.18	1257.03
1080.23	1254.86
1081.27	1252.05
1082.32	1248.93
1083.36	1245.72
1084.41	1242.47
1085.45	1239.84
1086.5	1236.82
1087.54	1233.48
1088.59	1230.13
1089.63	1227.01
1090.67	1224.12
1091.71	1221.43
1092.76	1219.19
1093.8	1217.36
1094.84	1216.44
1095.88	1215.59
1096.92	1215.02
1097.97	1214.75
1099.01	1214.78
1100.05	1215.07
1101.09	1215.58
1102.13	1216.69
1103.17	1218.24
1104.21	1220.29
1105.25	1223.54
1106.28	1226.18
1107.32	1227.37
1108.36	1226.79
1109.4	1225.08
1110.44	1221.97
1111.47	1217.58
1112.51	1212.02
1113.55	1205.9
1114.59	1198.77
1115.62	1191.31
1116.66	1184.06
1117.69	1176.86
1118.73	1170.12
1119.77	1164.3
1120.8	1159.66
1121.84	1156.1
1122.87	1154.41
1123.9	1154.05
1124.94	1155.04
1125.97	1156.5
1127	1158.26
1128.04	1160.98
1129.07	1164.57
1130.1	1169.53
1131.13	1176.12
1132.17	1184.5
1133.2	1193.33
1134.23	1207.4
1135.26	1224.83
1136.29	1237.08
1137.32	1247.45
1138.35	1256.72
1139.38	1265.2
1140.41	1273.15
1141.44	1279.75
1142.47	1284.38
1143.5	1286.64
1144.53	1273.68
1145.56	1285.27
1146.59	1302.72
1147.61	1318.01
1148.64	1333.16
1149.67	1348.01
1150.7	1360.89
1151.72	1382.06
1152.75	1391.09
1153.77	1403.16
1154.8	1412.67
1155.83	1400.68
1156.85	1380.49
1157.88	1338.77
1158.9	1304.49
1159.93	1271.47
1160.95	1239.69
1161.97	1210.02
1163	1182.61
1164.02	1159.83
1165.04	1154.82
1166.07	1145.36
1167.09	1138.47
1168.11	1134.47
1169.13	1133.91
1170.16	1135.77
1171.18	1139.64
1172.2	1144.45
1173.22	1151.23
1174.24	1160.12
1175.26	1170.11
1176.28	1180.38
1177.3	1189.07
1178.32	1197.49
1179.34	1205.01
1180.36	1211.51
1181.38	1216.64
1182.4	1220.99
1183.41	1222.74
1184.43	1219.32
1185.45	1213.83
1186.47	1206.9
1187.48	1198.74
1188.5	1189.09
1189.52	1178.03
1190.53	1165.94
1191.55	1152.99
1192.56	1139.7
1193.58	1127.01
1194.59	1114.57
1195.61	1102.83
1196.62	1091.56
1197.64	1080.24
1198.65	1070.4
1199.67	1062.94
1200.68	1059.26
1201.69	1057.37
1202.71	1057.39
1203.72	1058.48
1204.73	1060.51
1205.74	1068.19
1206.76	1077.57
1207.77	1086.13
1208.78	1092.82
1209.79	1097.31
1210.8	1089.98
1211.81	1088.44
1212.82	1087.59
1213.83	1087.49
1214.84	1087.56
1215.85	1087.85
1216.86	1087.81
1217.87	1087.51
1218.88	1086.95
1219.88	1085.62
1220.89	1085.79
1221.9	1086.19
1222.91	1084.93
1223.92	1082.49
1224.92	1078.35
1225.93	1073.02
1226.93	1066.26
1227.94	1058.27
1228.95	1049.05
1229.95	1037.42
1230.96	1025.46
1231.96	1013.5
1232.97	1003.97
1233.97	994.912
1234.98	986.618
1235.98	979.211
1236.98	973.062
1237.99	967.893
1238.99	963.599
1239.99	960.25
1241	957.415
1242	954.706
1243	951.892
1244	948.722
1245	945.221
1246	941.991
1247.01	938.811
1248.01	935.96
1249.01	933.319
1250.01	930.945
1251.01	929.132
1252.01	927.467
1253	926.629
1254	926.367
1255	926.632
1256	927.149
1257	927.764
1258	928.578
1258.99	929.189
1259.99	929.451
1260.99	929.065
1261.99	928.483
1262.98	927.241
1263.98	925.666
1264.98	923.158
1265.97	919.928
1266.97	915.833
1267.96	911.55
1268.96	907.159
1269.95	902.854
1270.95	899.965
1271.94	897.145
1272.93	894.924
1273.93	893.45
1274.92	892.974
1275.91	893.756
1276.91	896.886
1277.9	901.352
1278.89	907.135
1279.88	915.167
1280.87	924.334
1281.87	930.887
1282.86	935.769
1283.85	941.632
1284.84	944.311
1285.83	943.612
1286.82	940.426
1287.81	935.07
1288.8	923.225
1289.79	912.642
1290.78	903.281
1291.76	894.818
1292.75	887.141
1293.74	880.371
1294.73	874.655
1295.72	869.822
1296.7	865.6
1297.69	862.27
1298.68	859.528
1299.66	857.424
1300.65	856.372
1301.64	856.387
1302.62	860.932
1303.61	860.616
1304.59	860.292
1305.58	859.668
1306.56	858.886
1307.55	858
1308.53	856.884
1309.51	855.596
1310.5	854.216
1311.48	852.71
1312.46	851.345
1313.45	850.183
1314.43	849.714
1315.41	848.861
1316.39	853.488
1317.38	863.832
1318.36	878.43
1319.34	900.314
1320.32	916.564
1321.3	933.961
1322.28	952.517
1323.26	971.708
1324.24	985.986
1325.22	976.342
1326.2	967.201
1327.18	955.133
1328.16	934.219
1329.13	911.204
1330.11	894.427
1331.09	879.492
1332.07	865.431
1333.04	852.547
1334.02	840.716
1335	830.142
1335.97	820.847
1336.95	827.922
1337.93	826.012
1338.9	824.816
1339.88	824.039
1340.85	823.7
1341.83	823.446
1342.8	823.284
1343.78	823.217
1344.75	819.071
1345.72	819.013
1346.7	817.999
1347.67	816.385
1348.65	813.665
1349.62	810.082
1350.59	805.967
1351.56	801.377
1352.53	796.314
1353.51	791.05
1354.48	785.294
1355.45	779.66
1356.42	774.242
1357.39	768.312
1358.36	761.378
1359.33	756.735
1360.3	753.244
1361.27	751.515
1362.24	750.696
1363.21	750.424
1364.18	750.43
1365.14	750.676
1366.11	750.968
1367.08	751.158
1368.05	751.567
1369.02	752.037
1369.98	752.261
1370.95	751.61
1371.92	750.249
1372.88	749.053
1373.85	747.973
1374.81	748.392
1375.78	748.969
1376.74	749.885
1377.71	749.882
1378.68	749.653
1379.64	748.573
1380.6	747.376
1381.57	746.072
1382.53	744.66
1383.49	743.117
1384.46	741.603
1385.42	740.196
1386.38	738.59
1387.34	736.939
1388.31	735.352
1389.27	733.644
1390.23	731.836
1391.19	729.85
1392.15	728.228
1393.11	726.981
1394.07	725.974
1395.03	725
1395.99	723.362
1396.95	721.214
1397.91	718.898
1398.87	715.742
1399.83	712.179
1400.79	708.714
1401.75	705.274
1402.7	702.152
1403.66	699.163
1404.62	696.35
1405.58	693.888
1406.53	691.709
1407.49	689.707
1408.45	687.943
1409.4	686.444
1410.36	685.192
1411.31	684.343
1412.27	683.934
1413.23	683.585
1414.18	683.796
1415.13	684.179
1416.09	684.732
1417.04	685.475
1418	686.311
1418.95	686.714
1419.9	687.207
1420.86	687.649
1421.81	688.038
1422.76	687.892
1423.71	687.534
1424.67	687.428
1425.62	687.529
1426.57	687.741
1427.52	689.08
1428.47	691.757
1429.42	694.711
1430.37	697.92
1431.32	701.25
1432.27	704.464
1433.22	706.605
1434.17	708.946
1435.12	710.77
1436.07	713.258
1437.02	714.371
1437.96	713.672
1438.91	711.629
1439.86	708.577
1440.81	703.664
1441.75	698.228
1442.7	692.457
1443.65	686.867
1444.59	681.95
1445.54	677.579
1446.49	673.531
1447.43	670.465
1448.38	668.171
1449.32	666.188
1450.27	664.585
1451.21	662.918
1452.15	660.727
1453.1	658.596
1454.04	656.474
1454.98	654.071
1455.93	651.594
1456.87	648.892
1457.81	645.919
1458.76	642.608
1459.7	638.729
1460.64	634.264
1461.58	629.637
1462.52	625.306
1463.46	622.633
1464.4	621.43
1465.34	621.594
1466.28	624.276
1467.22	624.875
1468.16	625.699
1469.1	627.147
1470.04	629.404
1470.98	631.483
1471.92	633.098
1472.86	634.242
1473.8	634.828
1474.73	634.693
1475.67	634.442
1476.61	633.073
1477.55	631.454
1478.48	629.893
1479.42	628.58
1480.36	627.675
1481.29	627.607
1482.23	627.964
1483.16	628.349
1484.1	628.829
1485.03	629.448
1485.97	630.064
1486.9	630.909
1487.84	631.501
1488.77	631.844
1489.7	631.185
1490.64	629.005
1491.57	626.549
1492.5	623.679
1493.44	620.724
1494.37	617.761
1495.3	615.322
1496.23	612.589
1497.16	610.187
1498.09	607.446
1499.02	603.46
1499.96	599.68
1500.89	598.018
1501.82	599.011
1502.75	602.396
1503.68	608.369
1504.61	616.901
1505.53	627.515
1506.46	639.65
1507.39	644.256
1508.32	648.17
1509.25	653.37
1510.18	661.307
1511.1	673.032
1512.03	690.73
1512.96	718.054
1513.88	710.042
1514.81	731.823
1515.74	759.806
1516.66	786.544
1517.59	813.12
1518.51	836.693
1519.44	865.523
1520.36	879.864
1521.29	887.645
1522.21	892.684
1523.14	894.225
1524.06	892.617
1524.98	888.154
1525.91	880.908
1526.83	871.448
1527.75	859.612
1528.68	845.207
1529.6	828.801
1530.52	810.631
1531.44	790.999
1532.36	770.337
1533.29	750.597
1534.21	734.121
1535.13	716.391
1536.05	699.097
1536.97	682.09
1537.89	666.393
1538.81	652.272
1539.73	635.295
1540.65	628.216
1541.56	624.316
1542.48	622.606
1543.4	622.742
1544.32	624.131
1545.24	626.473
1546.16	629.026
1547.07	631.53
1547.99	634.01
1548.91	635.934
1549.82	636.838
1550.74	635.898
1551.66	631.489
1552.57	624.687
1553.49	616.272
1554.4	604.386
1555.32	596.038
1556.23	587.841
1557.15	580.424
1558.06	573.61
1558.97	567.735
1559.89	562.936
1560.8	558.87
1561.71	561.242
1562.63	558.166
1563.54	554.921
1564.45	551.111
1565.36	547.504
1566.28	542.832
1567.19	544.384
1568.1	546.321
1569.01	548.208
1569.92	550.676
1570.83	550.336
1571.74	549.264
1572.65	548.778
1573.56	547.872
1574.47	546.862
1575.38	545.922
1576.29	545.829
1577.2	545.506
1578.11	545.003
1579.01	544.268
1579.92	543.386
1580.83	542.557
1581.74	541.763
1582.64	540.795
1583.55	539.763
1584.46	538.88
1585.36	538.039
1586.27	537.553
1587.18	537.706
1588.08	538.521
1588.99	540.298
1589.89	542.584
1590.8	545.335
1591.7	548.376
1592.61	549.777
1593.51	551.337
1594.41	553.114
1595.32	554.901
1596.22	557.023
1597.12	558.963
1598.03	560.764
1598.93	562.424
1599.83	563.645
1600.73	565.021
1601.64	565.532
1602.54	565.227
1603.44	564.812
1604.34	564.418
1605.24	564.206
1606.14	564.234
1607.04	564.15
1607.94	563.896
1608.84	563.282
1609.74	562.301
1610.64	560.704
1611.54	558.665
1612.44	556.625
1613.33	553.621
1614.23	549.665
1615.13	546.521
1616.03	543.538
1616.92	541.598
1617.82	540.814
1618.72	540.314
1619.61	540.425
1620.51	540.154
1621.41	539.81
1622.3	540.335
1623.2	540.258
1624.09	539.455
1624.99	539.003
1625.88	538.99
1626.78	539.345
1627.67	539.587
1628.57	539.744
1629.46	539.685
1630.35	539.3
1631.25	538.995
1632.14	538.811
1632.85	538.507
1633.78	537.113
1634.71	535.717
1635.64	534.242
1636.57	532.987
1637.5	533.005
1638.42	533.08
1639.35	531.801
1640.28	530.095
1641.21	526.934
1642.13	524.002
1643.06	522.413
1643.99	521.834
1644.91	522.141
1645.84	523.986
1646.77	526.035
1647.69	526.627
1648.62	526.879
1649.54	528.025
1650.47	529.131
1651.39	529.611
1652.32	528.561
1653.24	526.753
1654.17	523.367
1655.09	522.362
1656.01	521.382
1656.94	520.469
1657.86	519.736
1658.78	519.125
1659.71	518.68
1660.63	518.503
1661.55	518.822
1662.47	519.341
1663.4	519.588
1664.32	518.56
1665.24	517.897
1666.16	517.444
1667.08	517.646
1668	517.659
1668.92	517.891
1669.84	518.161
1670.76	518.315
1671.68	517.496
1672.6	516.123
1673.52	514.161
1674.44	512.477
1675.36	510.981
1676.28	509.241
1677.2	507.649
1678.12	505.781
1679.03	503.915
1679.95	502.664
1680.87	500.691
1681.79	499.296
1682.7	498.014
1683.62	495.531
1684.54	496.553
1685.45	495.046
1686.37	493.871
1687.29	492.871
1688.2	491.77
1689.12	490.305
1690.03	488.747
1690.95	486.787
1691.86	484.559
1692.78	481.97
1693.69	479.432
1694.61	477.007
1695.52	474.786
1696.43	474.309
1697.35	474.097
1698.26	473.984
1699.17	473.944
1700.09	473.658
1701	473.26
1701.91	472.709
1702.82	472.118
1703.74	471.413
1704.65	470.639
1705.56	469.883
1706.47	469.038
1707.38	467.241
1708.29	466.447
1709.2	465.548
1710.11	465.175
1711.02	463.978
1711.93	462.813
1712.84	461.658
1713.75	460.59
1714.66	460.578
1715.57	460.631
1716.48	460.887
1717.39	460.836
1718.3	460.067
1719.21	456.511
1720.11	453.106
1721.02	452.524
1721.93	451.002
1722.84	450.068
1723.74	448.487
1724.65	446.769
1725.56	445.605
1726.46	445.611
1727.37	445.926
1728.28	447.211
1729.18	445.807
1730.09	444.36
1730.99	443.091
1731.9	442.346
1732.8	443.358
1733.71	444.215
1734.61	444.917
1735.52	444.743
1736.42	444.497
1737.32	444.009
1738.23	443.198
1739.13	441.934
1740.03	440.616
1740.94	439.812
1741.84	439.118
1742.74	438.159
1743.64	437.646
1744.54	438.198
1745.45	439.584
1746.35	438.658
1747.25	437.738
1748.15	436.863
1749.05	436.048
1749.95	435.275
1750.85	434.577
1751.75	433.889
1752.65	433.15
1753.55	432.537
1754.45	431.816
1755.35	431.276
1756.25	430.753
1757.15	430.21
1758.05	429.851
1758.94	429.535
1759.84	429.183
1760.74	428.748
1761.64	428.209
1762.53	427.525
1763.43	426.777
1764.33	425.313
1765.23	424.076
1766.12	422.766
1767.02	421.428
1767.91	420.103
1768.81	419.075
1769.71	417.892
1770.6	416.948
1771.5	416.037
1772.39	415.619
1773.29	415.5
1774.18	415.983
1775.07	417.149
1775.97	417.279
1776.86	415.606
1777.76	413.537
1778.65	411.304
1779.54	409.26
1780.44	407.105
1781.33	405.176
1782.22	402.855
1783.11	400.826
1784.01	399.096
1784.9	399.056
1785.79	399.888
1786.68	401.912
1787.57	403.632
1788.46	401.304
1789.35	399.92
1790.24	397.697
1791.13	395.665
1792.02	394.424
1792.91	393.145
1793.8	391.826
1794.69	391.251
1795.58	390.856
1796.47	389.416
1797.36	386.2
1798.25	383.037
1799.14	381.283
