Acq. time (s)=	15
Accumulations=	2
Range (cm-¹)=	600...1800
Windows=	2
Autofocus=	Off
AutoExposure=	Off
Spike filter=	Multiple accum.
Delay time (s)=	1
Binning=	1
Readout mode=	Signal
DeNoise=	Standard
ICS correction=	Off
Dark correction=	Off
Inst. Process=	Off
Instrument=	XploRA
Detector=	Syncerity
Objective=	x20LWD
Grating=	1200 gr/mm
Filter=	25%
Laser (nm)=	785 
Slit (µm)=	100 
Hole (µm)=	300 
Laser pol=	None
Raman pol=	None
Output=	Camera
StageXY=	Marzhauser
StageZ=	
X (µm)=	-6757.2
Y (µm)=	-3.1
Project=	
Sample=	
Site=	
Title=	To2
Remark=	
Date=	29.10.2022 05:06
Acquired=	29.10.2022 05:06:26
600.839	749.203
602.009	756.368
603.178	761.335
604.347	767.022
605.516	773.931
606.684	780.525
607.852	785.446
609.02	792.189
610.187	798.837
611.355	805.367
612.521	812.576
613.688	819.613
614.854	825.785
616.02	830.714
617.185	835.253
618.351	839.128
619.516	842.698
620.681	845.383
621.846	847.429
623.009	849.166
624.174	851.461
625.337	853.903
626.501	856.834
627.664	860.04
628.826	863.209
629.988	866.298
631.151	869.603
632.313	872.777
633.474	875.788
634.635	878.573
635.797	881.028
636.958	883.23
638.117	884.71
639.278	885.84
640.437	886.72
641.597	886.773
642.756	886.605
643.915	886.452
645.074	887.25
646.233	888.387
647.391	889.863
648.548	892.516
649.706	895.189
650.863	897.764
652.02	899.549
653.176	901.135
654.333	902.32
655.489	903.35
656.645	904.114
657.8	904.192
658.955	903.901
660.11	903.191
661.264	902.183
662.419	901.868
663.573	901.289
664.727	899.304
665.88	897.82
667.033	898.09
668.186	898.963
669.338	900.082
670.491	901.392
671.643	902.286
672.794	904.04
673.945	906.118
675.096	908.336
676.247	910.69
677.398	912.57
678.548	914.475
679.698	916.157
680.847	917.73
681.997	919.062
683.146	920.252
684.294	921.305
685.443	922.243
686.591	922.75
687.739	923.276
688.887	926.564
690.034	928.726
691.181	929.839
692.328	929.1
693.474	929.312
694.62	929.135
695.766	927.385
696.911	924.893
698.057	921.662
699.202	917.681
700.346	914.048
701.49	911.337
702.635	909.746
703.779	909.242
704.922	908.928
706.065	908.325
707.208	907.469
708.351	906.409
709.493	904.937
710.635	903.401
711.776	901.737
712.918	899.986
714.059	898.181
715.2	896.539
716.341	894.502
717.481	892.638
718.621	890.823
719.761	889.36
720.9	888.094
722.04	887.154
723.178	886.631
724.317	886.507
725.455	886.773
726.594	887.379
727.731	888.347
728.868	890.061
730.005	892.208
731.142	894.516
732.279	896.802
733.415	899.085
734.551	900.888
735.686	902.483
736.822	904.332
737.957	905.815
739.092	906.842
740.226	907.305
741.36	906.528
742.495	904.992
743.628	902.924
744.762	900.113
745.895	896.593
747.027	892.227
748.16	889.455
749.292	887.797
750.423	885.097
751.555	885.143
752.686	881.269
753.817	875.901
754.949	869.982
756.079	864.193
757.209	859.276
758.339	855.368
759.469	852.115
760.597	849.153
761.727	846.115
762.856	842.7
763.984	839.224
765.112	836.075
766.24	834.471
767.367	831.174
768.494	825.295
769.622	821.687
770.749	817.873
771.874	815.266
773.001	813.008
774.127	811.249
775.253	809.752
776.377	808.242
777.503	806.913
778.627	805.544
779.751	804.609
780.876	803.659
782	802.668
783.123	801.432
784.246	800.069
785.37	798.294
786.492	795.766
787.614	793.076
788.737	790.306
789.858	787.499
790.979	785.701
792.101	784.34
793.222	782.983
794.342	781.32
795.463	779.083
796.583	776.504
797.702	773.133
798.822	768.997
799.942	764.508
801.06	759.929
802.179	756.689
803.297	754.246
804.415	750.099
805.533	748.114
806.651	745.48
807.768	743.028
808.885	741.132
810.001	739.948
811.118	739.514
812.233	739.564
813.349	740.22
814.464	741.422
815.58	743.15
816.695	745.148
817.809	743.338
818.924	744.384
820.038	745.614
821.152	747.292
822.265	749.246
823.378	751.88
824.491	752.856
825.604	752.556
826.716	750.865
827.828	748.431
828.94	745.464
830.051	743.014
831.162	740.465
832.273	739.522
833.383	736.731
834.494	734.45
835.604	732.261
836.714	730.435
837.823	729.023
838.932	727.954
840.041	727.283
841.15	726.91
842.258	726.987
843.366	727.503
844.474	728.336
845.581	728.843
846.688	727.341
847.795	725.02
848.901	721.676
850.008	717.32
851.115	711.61
852.22	707.579
853.325	703.613
854.43	700.246
855.536	696.894
856.64	694.659
857.745	692.889
858.848	691.606
859.952	690.304
861.055	689.331
862.158	688.644
863.261	688.211
864.364	688.266
865.466	688.644
866.568	688.96
867.67	688.319
868.771	686.944
869.873	685.034
870.973	682.184
872.074	679.097
873.174	675.938
874.274	674.46
875.374	672.933
876.473	669.91
877.572	666.851
878.671	664.063
879.77	661.701
880.868	659.373
881.966	657.421
883.064	655.659
884.161	654.27
885.258	653.136
886.356	652.685
887.452	653.107
888.548	654.049
889.645	654.666
890.74	655.151
891.836	655.445
892.931	655.409
894.025	655.483
895.12	655.394
896.214	655.314
897.308	654.846
898.402	651.918
899.495	650.22
900.588	649.027
901.681	648.41
902.774	648.602
903.866	649.56
904.958	651.465
906.05	654.775
907.142	658.489
908.233	661.424
909.324	663.44
910.414	664.596
911.504	664.776
912.594	663.95
913.684	662.107
914.774	659.259
915.863	655.563
916.952	650.603
918.041	648.101
919.129	646.041
920.217	643.693
921.305	641.5
922.392	639.184
923.48	636.801
924.567	634.433
925.653	631.854
926.74	629.003
927.825	625.893
928.911	621.709
929.997	617.202
931.082	613.434
932.166	610.479
933.252	607.272
934.336	604.378
935.42	601.569
936.504	599.857
937.587	599.112
938.671	598.677
939.753	598.533
940.836	598.209
941.919	598.231
943	598.934
944.082	599.605
945.163	600.212
946.245	599.512
947.326	597.639
948.406	595.518
949.487	593.466
950.567	591.296
951.647	589.557
952.727	588.093
953.805	586.873
954.885	585.754
955.964	584.851
957.042	583.954
958.12	583.077
959.198	582.369
960.276	581.594
961.352	581.09
962.43	580.78
963.507	581.069
964.583	581.913
965.659	582.488
966.735	582.37
967.81	581.43
968.885	580.595
969.961	579.907
971.036	579.475
972.11	579.858
973.184	580.713
974.258	581.906
975.332	583.496
976.405	585.574
977.478	588.429
978.551	591.607
979.624	594.81
980.696	596.594
981.767	598.51
982.839	599.633
983.911	598.543
984.982	596.26
986.052	589.727
987.123	587.5
988.193	585.574
989.263	583.982
990.333	582.627
991.403	581.472
992.471	580.531
993.54	579.744
994.608	579.176
995.677	578.598
996.745	578.617
997.812	578.857
998.88	579.081
999.947	578.719
1001.01	576.743
1002.08	574.612
1003.15	572.026
1004.21	569.16
1005.28	565.96
1006.34	562.512
1007.41	559.098
1008.47	556.751
1009.54	553.71
1010.6	550.172
1011.67	545.945
1012.73	541.132
1013.79	535.264
1014.86	528.065
1015.92	522.93
1016.98	519
1018.05	516.975
1019.11	517.304
1020.17	519.875
1021.23	520.397
1022.29	516.879
1023.35	516.046
1024.41	515.289
1025.47	514.463
1026.53	513.86
1027.59	513.237
1028.65	512.769
1029.71	511.453
1030.77	509.778
1031.83	508.287
1032.89	507.296
1033.95	506.357
1035	505.631
1036.06	504.897
1037.12	504.641
1038.18	504.707
1039.23	505.205
1040.29	505.874
1041.35	506.587
1042.4	507.059
1043.46	507.21
1044.51	507.152
1045.57	506.654
1046.62	505.793
1047.68	504.725
1048.73	502.828
1049.79	500.64
1050.84	498.458
1051.89	496.74
1052.95	495.357
1054	493.918
1055.05	492.598
1056.1	491.566
1057.16	490.757
1058.21	489.926
1059.26	490.292
1060.31	491.162
1061.36	491.949
1062.41	492.782
1063.46	493.367
1064.51	493.549
1065.56	493.443
1066.61	493.091
1067.66	492.421
1068.71	491.41
1069.76	489.949
1070.81	488.263
1071.85	486.464
1072.9	484.032
1073.95	481.239
1075	477.792
1076.04	474.689
1077.09	471.411
1078.14	468.127
1079.18	464.799
1080.23	461.732
1081.27	459.137
1082.32	456.997
1083.36	455.895
1084.41	455.752
1085.45	457.069
1086.5	460.127
1087.54	465.299
1088.59	472.73
1089.63	483.198
1090.67	501.383
1091.71	501.257
1092.76	500.988
1093.8	500.755
1094.84	485.46
1095.88	460.675
1096.92	451.662
1097.97	452.558
1099.01	455.128
1100.05	456.511
1101.09	457.459
1102.13	457.587
1103.17	457.184
1104.21	456.019
1105.25	454.45
1106.28	452.28
1107.32	450.317
1108.36	450.433
1109.4	451.53
1110.44	452.962
1111.47	454.261
1112.51	455.359
1113.55	456.064
1114.59	456.543
1115.62	456.809
1116.66	456.819
1117.69	456.641
1118.73	456.049
1119.77	455.157
1120.8	453.901
1121.84	452.256
1122.87	450.289
1123.9	448.242
1124.94	446.169
1125.97	444.589
1127	443.695
1128.04	442.694
1129.07	441.904
1130.1	441.493
1131.13	441.413
1132.17	441.908
1133.2	443.167
1134.23	446.579
1135.26	452.21
1136.29	459.674
1137.32	468.595
1138.35	473.877
1139.38	478.248
1140.41	480.738
1141.44	481.614
1142.47	476.633
1143.5	474.868
1144.53	475.717
1145.56	480.883
1146.59	486.784
1147.61	492.368
1148.64	497.242
1149.67	500.044
1150.7	497.075
1151.72	503.785
1152.75	502.122
1153.77	498.976
1154.8	494.898
1155.83	489.755
1156.85	483.625
1157.88	476.493
1158.9	468.623
1159.93	459.324
1160.95	450.393
1161.97	441.914
1163	434.451
1164.02	428.497
1165.04	423.899
1166.07	421.776
1167.09	421.028
1168.11	421.676
1169.13	423.432
1170.16	425.828
1171.18	429.033
1172.2	432.173
1173.22	435.211
1174.24	438.028
1175.26	440.518
1176.28	442.659
1177.3	444.384
1178.32	445.768
1179.34	446.677
1180.36	447.263
1181.38	447.397
1182.4	447.176
1183.41	446.508
1184.43	445.398
1185.45	443.837
1186.47	441.93
1187.48	439.565
1188.5	436.763
1189.52	433.503
1190.53	429.737
1191.55	425.214
1192.56	419.222
1193.58	413.052
1194.59	407.736
1195.61	403.693
1196.62	401.159
1197.64	399.908
1198.65	399.545
1199.67	402.713
1200.68	402.578
1201.69	401.538
1202.71	399.984
1203.72	398.836
1204.73	400.623
1205.74	400.424
1206.76	399.952
1207.77	399.523
1208.78	399.181
1209.79	399.021
1210.8	399.103
1211.81	399.498
1212.82	400.2
1213.83	402.093
1214.84	404.042
1215.85	405.682
1216.86	406.581
1217.87	407.258
1218.88	407.52
1219.88	407.46
1220.89	407.046
1221.9	406.291
1222.91	405.264
1223.92	404.009
1224.92	402.484
1225.93	400.653
1226.93	398.555
1227.94	396.216
1228.95	393.565
1229.95	390.856
1230.96	388.092
1231.96	385.193
1232.97	382.589
1233.97	379.645
1234.98	376.219
1235.98	372.03
1236.98	368.033
1237.99	364.204
1238.99	360.828
1239.99	358.154
1241	356
1242	354.306
1243	353.351
1244	352.76
1245	352.747
1246	353.152
1247.01	353.886
1248.01	354.729
1249.01	355.332
1250.01	355.869
1251.01	356.346
1252.01	356.605
1253	356.465
1254	356.103
1255	355.558
1256	355.204
1257	355.276
1258	354.44
1258.99	352.564
1259.99	351.457
1260.99	350.526
1261.99	350.053
1262.98	349.44
1263.98	348.799
1264.98	348.044
1265.97	347.279
1266.97	346.041
1267.96	344.567
1268.96	343.265
1269.95	341.85
1270.95	340.611
1271.94	339.468
1272.93	338.872
1273.93	338.518
1274.92	338.567
1275.91	338.924
1276.91	339.812
1277.9	340.98
1278.89	342.792
1279.88	345.628
1280.87	348.68
1281.87	351.217
1282.86	352.629
1283.85	352.738
1284.84	351.872
1285.83	349.906
1286.82	347.323
1287.81	344.102
1288.8	340.865
1289.79	337.232
1290.78	333.788
1291.76	330.711
1292.75	328.189
1293.74	325.995
1294.73	324.947
1295.72	324.194
1296.7	323.566
1297.69	323.129
1298.68	322.775
1299.66	322.355
1300.65	321.924
1301.64	321.516
1302.62	321.171
1303.61	320.927
1304.59	320.763
1305.58	320.695
1306.56	320.659
1307.55	320.703
1308.53	320.83
1309.51	321.036
1310.5	321.465
1311.48	321.974
1312.46	322.669
1313.45	323.502
1314.43	322.159
1315.41	324.487
1316.39	327.415
1317.38	331.294
1318.36	335.908
1319.34	341.16
1320.32	346.2
1321.3	351.998
1322.28	356.602
1323.26	359.584
1324.24	361.184
1325.22	361.116
1326.2	359.518
1327.18	356.337
1328.16	352.059
1329.13	342.772
1330.11	337.424
1331.09	331.033
1332.07	325.419
1333.04	319.865
1334.02	314.759
1335	310.129
1335.97	307.156
1336.95	305.795
1337.93	307.698
1338.9	306.196
1339.88	305.14
1340.85	305.886
1341.83	308.122
1342.8	313.064
1343.78	302.793
1344.75	294.79
1345.72	287.156
1346.7	289.649
1347.67	291.98
1348.65	295.762
1349.62	299.254
1350.59	302.258
1351.56	304.127
1352.53	305.38
1353.51	305.379
1354.48	304.689
1355.45	303.465
1356.42	302.039
1357.39	300.553
1358.36	298.577
1359.33	296.166
1360.3	293.502
1361.27	290.574
1362.24	287.533
1363.21	284.402
1364.18	281.324
1365.14	281.97
1366.11	280.092
1367.08	278.57
1368.05	277.297
1369.02	276.487
1369.98	276.02
1370.95	275.988
1371.92	276.27
1372.88	277.004
1373.85	278.224
1374.81	279.779
1375.78	281.742
1376.74	283.729
1377.71	285.601
1378.68	286.411
1379.64	286.662
1380.6	285.949
1381.57	284.866
1382.53	283.405
1383.49	282.409
1384.46	281.791
1385.42	281.221
1386.38	280.51
1387.34	279.643
1388.31	277.836
1389.27	275.867
1390.23	273.938
1391.19	272.05
1392.15	270.083
1393.11	268.774
1394.07	267.914
1395.03	267.301
1395.99	266.823
1396.95	266.661
1397.91	266.715
1398.87	266.811
1399.83	266.986
1400.79	266.989
1401.75	267.01
1402.7	266.986
1403.66	266.918
1404.62	266.082
1405.58	264.993
1406.53	263.916
1407.49	262.853
1408.45	261.833
1409.4	261.237
1410.36	260.617
1411.31	260.168
1412.27	259.812
1413.23	259.508
1414.18	259.236
1415.13	259.269
1416.09	259.388
1417.04	259.546
1418	259.731
1418.95	260.089
1419.9	260.024
1420.86	259.989
1421.81	259.374
1422.76	259.122
1423.71	259.031
1424.67	259.714
1425.62	260.669
1426.57	261.701
1427.52	262.899
1428.47	264.222
1429.42	265.544
1430.37	266.89
1431.32	267.798
1432.27	268.838
1433.22	269.752
1434.17	270.032
1435.12	269.527
1436.07	268.454
1437.02	266.522
1437.96	264.544
1438.91	262.55
1439.86	260.768
1440.81	259.048
1441.75	257.539
1442.7	256.277
1443.65	255.203
1444.59	254.306
1445.54	253.549
1446.49	253.006
1447.43	252.611
1448.38	252.331
1449.32	252.195
1450.27	252.397
1451.21	252.66
1452.15	253.012
1453.1	253.095
1454.04	252.058
1454.98	250.544
1455.93	248.879
1456.87	247.225
1457.81	245.42
1458.76	244.317
1459.7	243.315
1460.64	242.567
1461.58	241.879
1462.52	241.257
1463.46	240.627
1464.4	240.029
1465.34	239.44
1466.28	238.717
1467.22	237.952
1468.16	237.199
1469.1	236.477
1470.04	235.803
1470.98	235.258
1471.92	234.919
1472.86	234.573
1473.8	234.397
1474.73	234.81
1475.67	235.126
1476.61	235.524
1477.55	235.913
1478.48	236.281
1479.42	236.658
1480.36	236.87
1481.29	237.13
1482.23	237.27
1483.16	237.299
1484.1	237.269
1485.03	236.985
1485.97	236.614
1486.9	236.16
1487.84	235.654
1488.77	235.125
1489.7	234.59
1490.64	234.033
1491.57	233.519
1492.5	232.989
1493.44	232.881
1494.37	232.659
1495.3	232.42
1496.23	232.23
1497.16	231.984
1498.09	231.719
1499.02	231.473
1499.96	231.303
1500.89	231.206
1501.82	231.146
1502.75	231.16
1503.68	230.736
1504.61	229.81
1505.53	229.471
1506.46	230.146
1507.39	231.717
1508.32	234.218
1509.25	237.821
1510.18	242.169
1511.1	247.389
1512.03	253.257
1512.96	259.976
1513.88	267.317
1514.81	274.996
1515.74	282.874
1516.66	290.326
1517.59	297.269
1518.51	303.663
1519.44	309.754
1520.36	314.88
1521.29	318.795
1522.21	320.746
1523.14	321.205
1524.06	320.397
1524.98	318.275
1525.91	314.876
1526.83	310.876
1527.75	306.416
1528.68	301.65
1529.6	296.66
1530.52	291.361
1531.44	285.795
1532.36	280.191
1533.29	274.54
1534.21	268.546
1535.13	262.266
1536.05	255.942
1536.97	249.813
1537.89	244.049
1538.81	238.469
1539.73	233.215
1540.65	228.597
1541.56	224.945
1542.48	222.444
1543.4	221.442
1544.32	221.149
1545.24	221.594
1546.16	222.57
1547.07	223.457
1547.99	224.703
1548.91	225.642
1549.82	226.117
1550.74	225.925
1551.66	225.107
1552.57	223.615
1553.49	221.416
1554.4	218.435
1555.32	214.933
1556.23	211.089
1557.15	207.232
1558.06	203.909
1558.97	200.551
1559.89	197.493
1560.8	194.655
1561.71	192.476
1562.63	190.772
1563.54	189.688
1564.45	188.572
1565.36	187.981
1566.28	187.576
1567.19	187.359
1568.1	187.499
1569.01	187.548
1569.92	187.567
1570.83	187.53
1571.74	187.392
1572.65	187.108
1573.56	186.527
1574.47	185.803
1575.38	185.408
1576.29	185.096
1577.2	184.763
1578.11	184.336
1579.01	183.88
1579.92	183.526
1580.83	183.155
1581.74	182.897
1582.64	182.55
1583.55	182.226
1584.46	181.868
1585.36	181.565
1586.27	181.24
1587.18	181.042
1588.08	180.78
1588.99	180.81
1589.89	180.726
1590.8	180.346
1591.7	180.178
1592.61	179.907
1593.51	180.009
1594.41	179.77
1595.32	179.757
1596.22	179.694
1597.12	179.601
1598.03	179.364
1598.93	179.268
1599.83	179.082
1600.73	178.982
1601.64	178.822
1602.54	178.578
1603.44	178.54
1604.34	178.457
1605.24	178.232
1606.14	178.159
1607.04	177.959
1607.94	177.508
1608.84	176.894
1609.74	176.532
1610.64	176.115
1611.54	175.547
1612.44	174.9
1613.33	173.586
1614.23	172.701
1615.13	171.639
1616.03	170.606
1616.92	170.249
1617.82	169.924
1618.72	169.842
1619.61	169.87
1620.51	169.589
1621.41	169.285
1622.3	168.918
1623.2	168.821
1624.09	169.011
1624.99	168.969
1625.88	168.686
1626.78	168.244
1627.67	167.575
1628.57	166.713
1629.46	165.802
1630.35	165.031
1631.25	164.103
1632.14	163.173
1632.85	162.943
1633.78	162.799
1634.71	162.764
1635.64	162.783
1636.57	162.844
1637.5	163.131
1638.42	163.17
1639.35	163.193
1640.28	163.151
1641.21	162.942
1642.13	162.917
1643.06	163.095
1643.99	162.644
1644.91	161.96
1645.84	161.151
1646.77	160.375
1647.69	159.757
1648.62	159.457
1649.54	159.446
1650.47	160.44
1651.39	161.06
1652.32	160.653
1653.24	159.922
1654.17	159.099
1655.09	158.564
1656.01	157.639
1656.94	156.653
1657.86	156.233
1658.78	155.553
1659.71	154.786
1660.63	153.79
1661.55	153.36
1662.47	152.841
1663.4	152.927
1664.32	153.178
1665.24	153.83
1666.16	153.97
1667.08	153.833
1668	154.004
1668.92	154.267
1669.84	154.232
1670.76	153.905
1671.68	153.772
1672.6	154.193
1673.52	154.276
1674.44	153.98
1675.36	153.756
1676.28	153.913
1677.2	153.388
1678.12	152.845
1679.03	151.882
1679.95	150.838
1680.87	149.886
1681.79	149.475
1682.7	149.073
1683.62	148.989
1684.54	149.147
1685.45	149.757
1686.37	150.206
1687.29	149.912
1688.2	149.503
1689.12	148.823
1690.03	147.904
1690.95	147.492
1691.86	146.87
1692.78	146.102
1693.69	145.492
1694.61	144.835
1695.52	144.306
1696.43	143.272
1697.35	142.657
1698.26	142.339
1699.17	142.246
1700.09	141.833
1701	141.417
1701.91	141.541
1702.82	141.718
1703.74	142.057
1704.65	142.185
1705.56	141.977
1706.47	141.777
1707.38	141.202
1708.29	140.844
1709.2	140.854
1710.11	140.394
1711.02	139.944
1711.93	140.139
1712.84	140.337
1713.75	139.811
1714.66	139.567
1715.57	139.353
1716.48	139.123
1717.39	138.789
1718.3	138.359
1719.21	137.456
1720.11	137.102
1721.02	136.047
1721.93	136.012
1722.84	135.387
1723.74	135.45
1724.65	135.605
1725.56	136.071
1726.46	136.658
1727.37	137.527
1728.28	137.586
1729.18	137.974
1730.09	137.904
1730.99	137.38
1731.9	136.36
1732.8	135.846
1733.71	135.183
1734.61	135.064
1735.52	134.877
1736.42	134.72
1737.32	134.561
1738.23	134.85
1739.13	134.313
1740.03	134.181
1740.94	132.976
1741.84	134.373
1742.74	131.951
1743.64	135.19
1744.54	135.54
1745.45	135.879
1746.35	136.186
1747.25	136.237
1748.15	133.542
1749.05	133.533
1749.95	129.589
1750.85	121.845
1751.75	131.463
1752.65	132.187
1753.55	132.808
1754.45	132.381
1755.35	132.346
1756.25	130.939
1757.15	129.155
1758.05	127.627
1758.94	126.391
1759.84	125.715
1760.74	124.787
1761.64	123.771
1762.53	123.043
1763.43	122.506
1764.33	122.494
1765.23	122.74
1766.12	124.021
1767.02	124.274
1767.91	124.601
1768.81	125.865
1769.71	127.156
1770.6	127.812
1771.5	127.523
1772.39	127.844
1773.29	128.405
1774.18	128.432
1775.07	128.154
1775.97	127.8
1776.86	126.697
1777.76	125.844
1778.65	124.517
1779.54	123.488
1780.44	122.722
1781.33	121.932
1782.22	121.286
1783.11	120.823
1784.01	120.538
1784.9	120.132
1785.79	120.279
1786.68	120.59
1787.57	120.661
1788.46	120.69
1789.35	120.82
1790.24	121.302
1791.13	121.652
1792.02	121.511
1792.91	121.327
1793.8	120.631
1794.69	119.686
1795.58	118.338
1796.47	116.129
1797.36	113.975
1798.25	111.406
1799.14	108.499
