Acq. time (s)=	15
Accumulations=	2
Range (cm-¹)=	600...1800
Windows=	2
Autofocus=	Off
AutoExposure=	On
Spike filter=	Multiple accum.
Delay time (s)=	1
Binning=	1
Readout mode=	Signal
DeNoise=	Standard
ICS correction=	Off
Dark correction=	Off
Inst. Process=	Off
Instrument=	XploRA
Detector=	Syncerity
Objective=	x20LWD
Grating=	1200 gr/mm
Filter=	25%
Laser (nm)=	785 
Slit (µm)=	100 
Hole (µm)=	300 
Laser pol=	None
Raman pol=	None
Output=	Camera
StageXY=	Marzhauser
StageZ=	
X (µm)=	-2932.1
Y (µm)=	2570.1
Project=	
Sample=	
Site=	
Title=	To2-T
Remark=	
Date=	14.10.2022 19:22
Acquired=	14.10.2022 19:22:37
600.787	378.719
601.956	383.424
603.126	388.226
604.294	393.309
605.463	397.717
606.631	402.293
607.8	407.138
608.967	412.286
610.135	417.34
611.302	422.46
612.468	427.249
613.635	431.66
614.802	435.738
615.968	438.654
617.133	440.852
618.299	442.716
619.464	444.073
620.629	445.185
621.793	445.951
622.958	446.886
624.121	447.432
625.285	447.326
626.448	447.078
627.612	446.585
628.774	446.53
629.937	446.93
631.099	447.478
632.261	448.094
633.423	448.667
634.584	449.276
635.745	449.815
636.906	450.205
638.066	450.434
639.227	450.677
640.386	450.838
641.546	451.022
642.705	451.663
643.864	452.297
645.023	453.416
646.181	454.051
647.339	454.291
648.497	453.868
649.655	453.484
650.812	452.495
651.969	451.525
653.125	450.513
654.282	449.621
655.438	448.883
656.593	448.346
657.75	448.126
658.905	448.177
660.059	448.334
661.214	448.883
662.368	449.886
663.522	450.973
664.676	452.2
665.83	453.496
666.983	454.862
668.136	456.322
669.288	457.129
670.441	458.443
671.592	459.743
672.744	461.091
673.895	462.434
675.046	463.697
676.197	464.796
677.348	465.773
678.498	466.4
679.648	467.655
680.798	468.892
681.947	470.211
683.096	471.112
684.245	471.776
685.394	472.19
686.542	472.259
687.69	472.148
688.837	471.756
689.984	471.126
691.132	470.353
692.278	469.352
693.425	468.254
694.571	467.059
695.717	465.799
696.863	465.006
698.008	464.652
699.152	464.112
700.298	463.333
701.442	462.642
702.586	461.968
703.73	461.3
704.873	460.674
706.017	460.063
707.16	459.509
708.302	458.983
709.445	458.516
710.586	458.148
711.729	457.791
712.87	457.397
714.012	456.976
715.152	456.86
716.293	456.717
717.433	456.473
718.573	456.001
719.713	455.204
720.853	453.151
721.991	451.004
723.131	448.59
724.269	445.856
725.408	442.553
726.545	439.526
727.683	437.841
728.821	437.116
729.958	437.102
731.095	437.914
732.231	439.938
733.368	442.623
734.503	445.917
735.639	449.765
736.775	454.001
737.91	458.039
739.045	462.214
740.179	466.115
741.313	469.034
742.447	470.779
743.581	470.619
744.714	469.685
745.847	467.76
746.98	465.725
748.113	463.364
749.245	460.825
750.377	458.172
751.509	455.399
752.64	452.371
753.771	449.074
754.902	445.563
756.033	441.739
757.163	437.378
758.293	433.052
759.423	428.918
760.551	427.842
761.681	425.316
762.81	423.221
763.938	421.344
765.066	418.994
766.194	416.716
767.321	414.677
768.449	412.984
769.576	411.654
770.703	410.897
771.83	410.402
772.955	410.264
774.081	410.541
775.207	411.029
776.332	411.492
777.457	411.641
778.582	410.388
779.707	408.526
780.831	406.353
781.954	404.415
783.078	402.401
784.201	400.47
785.324	398.936
786.447	396.971
787.569	395.145
788.691	393.543
789.813	392.337
790.935	391.709
792.056	391.236
793.177	391.061
794.297	391.109
795.418	391.312
796.539	391.221
797.658	390.777
798.777	390.017
799.897	389.226
801.016	388.584
802.134	387.873
803.253	387.389
804.371	386.666
805.489	385.878
806.606	384.515
807.723	382.977
808.84	381.497
809.957	380.219
811.073	379.014
812.19	378.163
813.305	377.506
814.421	377.012
815.536	376.583
816.651	376.302
817.766	376.171
818.88	376.247
819.994	376.399
821.108	376.959
822.221	377.557
823.335	378.16
824.448	378.711
825.56	379.154
826.673	379.47
827.784	379.101
828.897	378.695
830.008	377.976
831.119	377.103
832.23	376.041
833.341	374.929
834.451	373.532
835.561	372.104
836.671	370.651
837.78	369.164
838.89	367.84
839.998	366.559
841.108	365.512
842.216	364.398
843.324	363.63
844.431	362.745
845.539	361.94
846.646	361.163
847.753	360.428
848.859	359.757
849.966	359.081
851.071	358.406
852.178	357.743
853.283	357.058
854.388	356.279
855.494	355.229
856.598	353.163
857.703	349.913
858.806	348.308
859.91	347.986
861.014	348.783
862.116	349.496
863.22	349.997
864.322	350.225
865.425	350.147
866.527	349.767
867.628	349.369
868.73	348.681
869.831	347.629
870.932	346.009
872.032	342.989
873.133	340.456
874.233	338.723
875.333	337.152
876.432	335.694
877.532	334.658
878.631	333.366
879.729	333.235
880.828	333.472
881.926	333.757
883.023	334.108
884.121	334.476
885.218	334.773
886.315	334.592
887.412	334.512
888.508	334.261
889.604	333.962
890.699	333.527
891.795	333.012
892.89	332.463
893.985	331.692
895.08	330.895
896.174	329.981
897.268	328.471
898.362	326.941
899.456	325.485
900.549	324.052
901.642	322.743
902.734	322.094
903.827	321.566
904.919	321.483
906.011	321.65
907.102	322.094
908.193	322.961
909.284	323.976
910.375	325.299
911.465	326.78
912.555	328.302
913.645	329.845
914.734	330.747
915.824	330.704
916.913	330.123
918.001	329.245
919.09	328.29
920.177	327.79
921.266	327.167
922.353	326.456
923.44	325.715
924.527	324.805
925.614	323.352
926.7	321.522
927.786	319.562
928.873	317.579
929.958	315.668
931.043	313.541
932.128	311.401
933.213	309.227
934.297	307.195
935.381	304.846
936.465	302.585
937.549	300.484
938.632	298.585
939.715	296.907
940.798	296.021
941.881	295.99
942.962	296.045
944.044	296.37
945.125	296.803
946.207	296.705
947.288	295.725
948.368	294.803
949.449	293.918
950.529	293.405
951.61	292.868
952.689	292.32
953.769	291.578
954.847	290.747
955.926	289.476
957.004	288.229
958.082	287.203
959.16	286.848
960.238	286.958
961.316	287.842
962.392	288.983
963.469	290.153
964.546	290.993
965.622	291.602
966.698	291.397
967.774	290.892
968.849	290.304
969.924	289.604
970.998	289.302
972.073	289.195
973.148	289.109
974.221	289.104
975.295	289.196
976.369	289.355
977.441	286.228
978.514	287.032
979.587	290.618
980.659	294.059
981.731	297.246
982.802	299.923
983.874	302.593
984.945	304.585
986.016	305.898
987.087	306.025
988.157	304.748
989.227	303.1
990.296	301.611
991.366	299.713
992.435	298.213
993.504	297.289
994.573	296.933
995.641	297.432
996.709	298.062
997.777	298.378
998.844	298.061
999.911	297.088
1000.98	295.453
1002.05	291.415
1003.11	288.841
1004.18	286.403
1005.24	284.253
1006.31	281.945
1007.37	279.268
1008.44	276.707
1009.5	274.326
1010.57	272.131
1011.63	270.442
1012.7	268.866
1013.76	267.615
1014.82	267.041
1015.89	266.606
1016.95	266.195
1018.01	265.793
1019.07	265.391
1020.13	264.609
1021.2	263.514
1022.26	261.909
1023.32	260.317
1024.38	258.775
1025.44	257.314
1026.5	255.968
1027.56	255.089
1028.62	254.407
1029.68	253.949
1030.74	253.767
1031.8	253.857
1032.85	254.139
1033.91	254.991
1034.97	256.302
1036.03	257.625
1037.09	258.904
1038.14	260.118
1039.2	260.313
1040.26	260.348
1041.31	260.101
1042.37	259.406
1043.42	258.484
1044.48	257.272
1045.53	255.49
1046.59	253.632
1047.64	251.796
1048.7	249.943
1049.75	248.734
1050.81	247.781
1051.86	246.897
1052.91	246.484
1053.97	246.478
1055.02	246.788
1056.07	247.261
1057.12	247.752
1058.17	248.238
1059.23	248.709
1060.28	248.632
1061.33	248.524
1062.38	248.268
1063.43	247.624
1064.48	246.92
1065.53	245.665
1066.58	244.234
1067.63	242.768
1068.68	241.341
1069.72	239.917
1070.77	238.882
1071.82	237.885
1072.87	236.903
1073.92	235.998
1074.96	235.176
1076.01	234.422
1077.06	233.755
1078.1	233.222
1079.15	232.695
1080.2	232.289
1081.24	231.875
1082.29	231.529
1083.33	231.225
1084.38	230.713
1085.42	230.715
1086.47	230.789
1087.51	231.002
1088.55	230.88
1089.6	230.065
1090.64	229.21
1091.68	228.194
1092.73	227.262
1093.77	226.088
1094.81	224.977
1095.85	224.057
1096.89	223.271
1097.93	222.698
1098.98	222.347
1100.02	222.229
1101.06	222.929
1102.1	224.193
1103.14	225.26
1104.18	226.299
1105.21	227.112
1106.25	226.938
1107.29	226.601
1108.33	226.037
1109.37	225.002
1110.41	223.714
1111.44	222.206
1112.48	220.573
1113.52	218.768
1114.56	217.16
1115.59	217.42
1116.63	218.605
1117.66	221.047
1118.7	222.559
1119.73	220.935
1120.77	217.434
1121.8	216.552
1122.84	215.386
1123.87	214.887
1124.91	215.542
1125.94	216.658
1126.97	215.569
1128.01	214.531
1129.04	214.065
1130.07	214.505
1131.11	216.066
1132.14	218.046
1133.17	220.337
1134.2	222.477
1135.23	224.837
1136.26	227.296
1137.29	229.495
1138.32	231.108
1139.35	230.273
1140.38	230.277
1141.41	229.989
1142.44	229.86
1143.47	229.84
1144.5	230.1
1145.53	230.522
1146.56	231.237
1147.58	232.394
1148.61	233.667
1149.64	235.484
1150.67	237.318
1151.69	239.306
1152.72	241.516
1153.75	243.471
1154.77	244.736
1155.8	245.396
1156.82	245.51
1157.85	244.791
1158.87	243.437
1159.9	241.239
1160.92	238.325
1161.95	234.761
1162.97	230.468
1163.99	226.159
1165.02	222.55
1166.04	219.39
1167.06	216.886
1168.08	214.917
1169.11	213.391
1170.13	212.347
1171.15	211.563
1172.17	211.601
1173.19	211.993
1174.21	213.184
1175.23	214.502
1176.25	215.919
1177.27	216.939
1178.29	217.881
1179.31	218.711
1180.33	219.438
1181.35	219.581
1182.37	219.493
1183.39	219.235
1184.4	218.667
1185.42	217.988
1186.44	217.081
1187.46	216.052
1188.47	214.822
1189.49	213.456
1190.51	212.01
1191.52	210.44
1192.54	209.286
1193.55	207.711
1194.57	206.108
1195.58	204.566
1196.6	202.976
1197.61	202.004
1198.63	201.609
1199.64	201.61
1200.65	200.801
1201.67	199.388
1202.68	198.116
1203.69	196.872
1204.7	195.766
1205.72	194.962
1206.73	194.568
1207.74	194.292
1208.75	194.156
1209.76	194.342
1210.77	194.734
1211.78	195.361
1212.79	196.384
1213.8	197.481
1214.81	198.578
1215.82	199.633
1216.83	200.532
1217.84	201.193
1218.85	201.765
1219.86	202.08
1220.87	202.243
1221.87	201.858
1222.88	201.372
1223.89	200.645
1224.9	199.781
1225.9	198.852
1226.91	197.755
1227.92	196.652
1228.92	195.401
1229.93	194.565
1230.93	193.725
1231.94	192.889
1232.94	192.001
1233.95	191.034
1234.95	190.061
1235.95	188.427
1236.96	186.75
1237.96	184.519
1238.96	182.622
1239.97	180.893
1240.97	179.656
1241.97	178.428
1242.97	177.513
1243.98	176.762
1244.98	176.096
1245.98	175.514
1246.98	175.031
1247.98	174.759
1248.98	174.26
1249.98	173.776
1250.98	173.192
1251.98	172.661
1252.98	172.167
1253.98	171.766
1254.98	171.395
1255.98	171.139
1256.97	170.922
1257.97	170.801
1258.97	170.785
1259.97	170.982
1260.97	171.13
1261.96	171.304
1262.96	171.526
1263.95	171.74
1264.95	171.965
1265.95	172.275
1266.94	172.521
1267.94	172.732
1268.93	172.473
1269.93	170.812
1270.92	169.229
1271.92	167.872
1272.91	166.82
1273.9	165.908
1274.9	165.229
1275.89	164.742
1276.88	164.568
1277.87	164.633
1278.87	164.964
1279.86	165.794
1280.85	166.795
1281.84	168.218
1282.83	169.849
1283.82	171.921
1284.81	173.928
1285.81	175.751
1286.8	176.585
1287.79	176.83
1288.77	175.561
1289.76	173.384
1290.75	170.982
1291.74	168.899
1292.73	166.549
1293.72	164.956
1294.71	163.843
1295.69	162.261
1296.68	160.609
1297.67	159.142
1298.65	157.831
1299.64	156.744
1300.63	156.089
1301.61	155.912
1302.6	156.826
1303.58	158.25
1304.57	160.122
1305.55	161.72
1306.54	162.137
1307.52	162.097
1308.51	161.843
1309.49	161.748
1310.48	161.993
1311.46	161.185
1312.44	158.993
1313.42	157.876
1314.41	157.806
1315.39	158.249
1316.37	159.054
1317.35	158.453
1318.33	158.023
1319.32	159.24
1320.3	160.698
1321.28	162.494
1322.26	163.683
1323.24	165.179
1324.22	166.966
1325.2	169.855
1326.18	172.925
1327.15	176.01
1328.13	177.778
1329.11	177.706
1330.09	176.162
1331.07	174.05
1332.05	171.474
1333.02	164.463
1334	160.122
1334.98	155.935
1335.95	151.73
1336.93	150.867
1337.91	151.624
1338.88	151.713
1339.86	151.777
1340.83	151.602
1341.81	151.431
1342.78	151.056
1343.76	150.309
1344.73	149.135
1345.7	147.936
1346.68	146.979
1347.65	147.401
1348.62	148.189
1349.6	149.062
1350.57	149.989
1351.54	150.641
1352.51	150.93
1353.49	150.907
1354.46	150.409
1355.43	149.057
1356.4	145.254
1357.37	143.123
1358.34	141.967
1359.31	141.785
1360.28	140.936
1361.25	139.984
1362.22	139.015
1363.19	138.122
1364.16	137.341
1365.12	136.694
1366.09	136.136
1367.06	135.738
1368.03	135.441
1369	135.224
1369.96	135.044
1370.93	134.86
1371.9	134.718
1372.86	134.935
1373.83	135.199
1374.79	135.47
1375.76	135.762
1376.73	136.023
1377.69	136.253
1378.66	136.371
1379.62	136.032
1380.58	135.712
1381.55	135.233
1382.51	134.544
1383.48	133.803
1384.44	133.171
1385.4	132.692
1386.36	130.415
1387.33	131.139
1388.29	131.865
1389.25	132.988
1390.21	134.288
1391.17	135.478
1392.13	136.482
1393.09	137.154
1394.06	137.53
1395.01	136.981
1395.97	135.034
1396.93	133.76
1397.89	132.55
1398.85	132.243
1399.81	132.387
1400.77	132.453
1401.73	131.857
1402.69	131.038
1403.64	130.057
1404.6	129.496
1405.56	129.067
1406.52	128.755
1407.47	128.268
1408.43	127.509
1409.39	127.392
1410.34	127.881
1411.3	128.19
1412.25	128.061
1413.21	127.994
1414.16	127.813
1415.12	127.696
1416.07	127.839
1417.03	127.982
1417.98	128.201
1418.93	128.406
1419.89	128.645
1420.84	128.822
1421.79	129.132
1422.74	129.039
1423.7	128.908
1424.65	128.437
1425.6	127.52
1426.55	127.562
1427.5	127.401
1428.45	127.087
1429.4	126.843
1430.35	126.572
1431.3	126.433
1432.25	126.323
1433.2	126.452
1434.15	126.623
1435.1	126.926
1436.05	127.28
1437	127.628
1437.95	128.034
1438.89	128.434
1439.84	128.772
1440.79	129.259
1441.74	129.68
1442.68	130.089
1443.63	130.39
1444.58	130.514
1445.52	130.508
1446.47	130.144
1447.41	129.699
1448.36	128.53
1449.3	127.542
1450.25	126.428
1451.19	125.241
1452.14	124.119
1453.08	122.638
1454.03	121.187
1454.97	119.844
1455.91	118.619
1456.85	117.523
1457.8	116.688
1458.74	116.005
1459.68	115.758
1460.62	115.497
1461.57	115.309
1462.51	115.171
1463.45	115.099
1464.39	115.185
1465.33	115.338
1466.27	115.516
1467.21	115.79
1468.15	116.01
1469.09	116.196
1470.03	116.442
1470.97	116.481
1471.9	116.487
1472.84	116.443
1473.78	116.44
1474.72	116.318
1475.66	115.754
1476.59	115.77
1477.53	115.789
1478.47	115.829
1479.4	115.895
1480.34	115.93
1481.28	116.131
1482.21	116.193
1483.15	116.298
1484.08	116.355
1485.02	116.387
1485.95	116.346
1486.89	116.31
1487.82	116.196
1488.76	116.083
1489.69	115.853
1490.62	115.565
1491.56	115.3
1492.49	114.991
1493.42	114.628
1494.35	114.252
1495.29	113.852
1496.22	113.413
1497.15	112.99
1498.08	112.677
1499.01	111.977
1499.94	111.325
1500.87	110.687
1501.8	110.114
1502.73	109.622
1503.66	109.22
1504.59	109.396
1505.52	109.888
1506.45	110.445
1507.38	111.142
1508.31	112.018
1509.23	113.183
1510.16	114.571
1511.09	116.269
1512.02	118.206
1512.94	120.445
1513.87	123.16
1514.8	126.151
1515.72	129.646
1516.65	133.16
1517.58	136.755
1518.5	140.077
1519.43	143.499
1520.35	146.777
1521.28	149.772
1522.2	152.466
1523.12	154.5
1524.05	155.771
1524.97	156.053
1525.9	155.642
1526.82	154.713
1527.74	153.419
1528.66	151.967
1529.59	149.972
1530.51	147.833
1531.43	145.543
1532.35	143.161
1533.27	140.607
1534.19	138.026
1535.11	135.325
1536.04	132.591
1536.96	130.025
1537.88	127.139
1538.8	124.271
1539.71	121.6
1540.63	119.17
1541.55	117.008
1542.47	115.308
1543.39	113.895
1544.31	112.84
1545.23	112.321
1546.14	112.161
1547.06	112.356
1547.98	112.61
1548.89	112.937
1549.81	113.434
1550.73	113.501
1551.64	113.61
1552.56	113.51
1553.47	113.363
1554.39	112.683
1555.31	111.648
1556.22	110.274
1557.13	108.808
1558.05	107.31
1558.96	105.945
1559.88	104.729
1560.79	103.283
1561.7	102.029
1562.62	101.193
1563.53	100.537
1564.44	100.065
1565.35	99.5154
1566.27	99.0258
1567.18	98.4228
1568.09	97.7558
1569	96.9712
1569.91	96.2869
1570.82	95.4313
1571.73	94.606
1572.64	93.7999
1573.55	93.1026
1574.46	92.4764
1575.37	92.0405
1576.28	91.7629
1577.19	91.6273
1578.1	91.6065
1579	91.6489
1579.91	91.9286
1580.82	92.2762
1581.73	92.5735
1582.63	92.8138
1583.54	92.9604
1584.45	92.5758
1585.35	92.1801
1586.26	91.2554
1587.17	90.25
1588.07	89.2938
1588.98	88.6301
1589.88	88.1
1590.79	87.8758
1591.69	88.0137
1592.6	88.1931
1593.5	88.6273
1594.4	89.0643
1595.31	89.6255
1596.21	90.2143
1597.11	90.7753
1598.02	91.3601
1598.92	91.8768
1599.82	92.3529
1600.72	92.6606
1601.63	92.8839
1602.53	92.7335
1603.43	92.5168
1604.33	92.3416
1605.23	92.0792
1606.13	91.8174
1607.03	91.6114
1607.93	91.4757
1608.83	91.3583
1609.73	91.3065
1610.63	91.4869
1611.53	91.6167
1612.43	91.7873
1613.32	91.9115
1614.22	92.1963
1615.12	92.046
1616.02	91.4066
1616.92	90.7579
1617.81	90.5932
1618.71	90.5667
1619.61	89.3105
1620.5	88.2331
1621.4	87.4192
1622.29	86.7168
1623.19	85.8422
1624.08	85.042
1624.98	84.6583
1625.87	84.6437
1626.77	84.8534
1627.66	85.2591
1628.56	85.8664
1629.45	86.6008
1630.34	87.4597
1631.24	87.7049
1632.13	86.5148
1632.84	85.6588
1633.77	84.9171
1634.7	84.4177
1635.63	84.0594
1636.56	83.9955
1637.49	84.1202
1638.42	84.4449
1639.34	84.9007
1640.27	85.1009
1641.2	84.6346
1642.13	84.2992
1643.05	84.0482
1643.98	84.2742
1644.91	84.5578
1645.83	84.8943
1646.76	85.2368
1647.68	85.4851
1648.61	85.7695
1649.54	85.9073
1650.46	85.05
1651.39	84.1143
1652.31	83.1877
1653.23	82.3113
1654.16	81.5331
1655.08	81.164
1656.01	80.9759
1656.93	81.5649
1657.85	82.2278
1658.78	82.2955
1659.7	81.7865
1660.62	81.3344
1661.54	81.0325
1662.47	80.8652
1663.39	80.7278
1664.31	80.7152
1665.23	80.8669
1666.15	81.2084
1667.07	81.7442
1667.99	82.5197
1668.92	83.1331
1669.84	83.2414
1670.76	83.3371
1671.68	83.4092
1672.6	83.3749
1673.52	83.3494
1674.43	83.242
1675.35	83.1241
1676.27	82.967
1677.19	82.8057
1678.11	82.6598
1679.03	82.4937
1679.95	82.3429
1680.86	82.0243
1681.78	81.4939
1682.7	80.9657
1683.61	80.5378
1684.53	80.2187
1685.45	79.984
1686.36	79.7713
1687.28	79.572
1688.2	79.277
1689.11	78.7561
1690.03	78.2291
1690.94	77.7807
1691.86	77.445
1692.77	77.3868
1693.69	77.2015
1694.6	76.3357
1695.52	75.3301
1696.43	74.112
1697.34	72.9018
1698.26	72.5127
1699.17	72.2898
1700.08	71.1781
1700.99	70.6754
1701.91	71.218
1702.82	72.3577
1703.73	72.3512
1704.64	71.8039
1705.55	71.8082
1706.47	72.0545
1707.38	72.4512
1708.29	72.8241
1709.2	73.3647
1710.11	73.8025
1711.02	74.2278
1711.93	74.6115
1712.84	74.8819
1713.75	75.0445
1714.66	75.285
1715.57	75.5103
1716.48	75.4996
1717.39	75.2849
1718.29	75.0347
1719.2	74.7341
1720.11	74.4309
1721.02	74.1259
1721.93	73.657
1722.83	73.4847
1723.74	73.2621
1724.65	72.7935
1725.55	72.2661
1726.46	71.8173
1727.37	71.434
1728.27	71.0428
1729.18	70.9937
1730.08	70.8723
1730.99	70.8299
1731.89	70.7513
1732.8	70.7561
1733.7	70.7973
1734.61	70.831
1735.51	70.64
1736.42	70.3417
1737.32	69.9582
1738.22	69.6391
1739.13	69.5182
1740.03	69.0727
1740.93	68.4593
1741.83	67.8618
1742.74	67.2815
1743.64	66.7971
1744.54	66.3549
1745.44	66.2296
1746.34	66.1033
1747.24	66.0867
1748.15	66.167
1749.05	66.3594
1749.95	66.693
1750.85	67.0847
1751.75	67.7366
1752.65	68.4261
1753.55	69.1607
1754.45	69.8568
1755.35	70.4299
1756.25	70.2154
1757.14	70.012
1758.04	69.7108
1758.94	69.3582
1759.84	69.0724
1760.74	68.8566
1761.63	68.6689
1762.53	68.48
1763.43	68.3083
1764.33	66.8926
1765.22	66.7007
1766.12	66.7745
1767.02	66.992
1767.91	67.3041
1768.81	66.9889
1769.7	67.2615
1770.6	67.4193
1771.49	67.6776
1772.39	68.0171
1773.28	68.4323
1774.18	68.8114
1775.07	69.0575
1775.97	68.3194
1776.86	67.5245
1777.75	66.5154
1778.65	65.9629
1779.54	65.6134
1780.43	65.2312
1781.33	64.8423
1782.22	64.5163
1783.11	64.2734
1784	64.091
1784.89	64.1759
1785.79	64.3911
1786.68	64.7011
1787.57	65.0375
1788.46	65.4425
1789.35	65.336
1790.24	65.1237
1791.13	64.8075
1792.02	64.3243
1792.91	63.8661
1793.8	63.2404
1794.69	62.5999
1795.58	62.0919
1796.47	61.6708
1797.36	62.1439
1798.25	62.5805
1799.13	62.9741
