Acq. time (s)=	15
Accumulations=	2
Range (cm-¹)=	600...1800
Windows=	2
Autofocus=	Off
AutoExposure=	Off
Spike filter=	Multiple accum.
Delay time (s)=	1
Binning=	1
Readout mode=	Signal
DeNoise=	Standard
ICS correction=	Off
Dark correction=	Off
Inst. Process=	Off
Instrument=	XploRA
Detector=	Syncerity
Objective=	x20LWD
Grating=	1200 gr/mm
Filter=	25%
Laser (nm)=	785 
Slit (µm)=	100 
Hole (µm)=	300 
Laser pol=	None
Raman pol=	None
Output=	Camera
StageXY=	Marzhauser
StageZ=	
X (µm)=	-1863.9
Y (µm)=	83.9
Project=	
Sample=	
Site=	
Title=	To2
Remark=	
Date=	29.10.2022 05:04
Acquired=	29.10.2022 05:04:34
600.839	894.004
602.009	904.027
603.178	913.028
604.347	924.503
605.516	936.649
606.684	946.935
607.852	956.838
609.02	966.34
610.187	978.523
611.355	987.406
612.521	994.362
613.688	1000.47
614.854	1006.52
616.02	1012.76
617.185	1017.58
618.351	1023.56
619.516	1029.35
620.681	1034.9
621.846	1039.14
623.009	1042.25
624.174	1046.11
625.337	1050.67
626.501	1055.61
627.664	1060.15
628.826	1064.05
629.988	1065.67
631.151	1067.51
632.313	1068.42
633.474	1070.58
634.635	1071.57
635.797	1073.01
636.958	1077.17
638.117	1080.17
639.278	1084.2
640.437	1084.97
641.597	1085.88
642.756	1085.69
643.915	1085.6
645.074	1084.46
646.233	1084.93
647.391	1086.04
648.548	1087.29
649.706	1087.34
650.863	1089.35
652.02	1091.36
653.176	1093.58
654.333	1097.8
655.489	1102.53
656.645	1109.79
657.8	1113.05
658.955	1115.46
660.11	1118.32
661.264	1119.57
662.419	1121.34
663.573	1122.18
664.727	1124.39
665.88	1127.21
667.033	1129.2
668.186	1130.07
669.338	1130.71
670.491	1131.66
671.643	1132.51
672.794	1133.19
673.945	1133.59
675.096	1135.14
676.247	1136.86
677.398	1138.88
678.548	1141.11
679.698	1143.21
680.847	1145.53
681.997	1146.46
683.146	1147.43
684.294	1146.82
685.443	1145.15
686.591	1143.34
687.739	1142.96
688.887	1141.99
690.034	1139.89
691.181	1138.02
692.328	1137.97
693.474	1137.72
694.62	1137.83
695.766	1137.77
696.911	1138.82
698.057	1140.17
699.202	1142.08
700.346	1145.04
701.49	1146.76
702.635	1148.3
703.779	1149.71
704.922	1149.71
706.065	1147.34
707.208	1143.17
708.351	1138.78
709.493	1133.92
710.635	1129.43
711.776	1123.72
712.918	1119.01
714.059	1113.97
715.2	1109.12
716.341	1106.87
717.481	1103.57
718.621	1102.32
719.761	1101.93
720.9	1101.83
722.04	1102.03
723.178	1102.65
724.317	1102.02
725.455	1101.9
726.594	1101.89
727.731	1101.58
728.868	1102.26
730.005	1103.03
731.142	1104.41
732.279	1105.92
733.415	1108.01
734.551	1108.18
735.686	1109.95
736.822	1112.17
737.957	1113.79
739.092	1115.47
740.226	1115.93
741.36	1116.09
742.495	1115.78
743.628	1115.25
744.762	1113.59
745.895	1110.57
747.027	1107.49
748.16	1104.75
749.292	1101.44
750.423	1098.26
751.555	1093.85
752.686	1089.89
753.817	1085.91
754.949	1080.6
756.079	1075.73
757.209	1067.77
758.339	1063.24
759.469	1058.68
760.597	1055.37
761.727	1052.08
762.856	1049.24
763.984	1046.01
765.112	1043.13
766.24	1040.77
767.367	1038.61
768.494	1035.7
769.622	1034.08
770.749	1031.86
771.874	1028.35
773.001	1024.54
774.127	1018.29
775.253	1013.55
776.377	1009.39
777.503	1005.91
778.627	1003.5
779.751	1000.79
780.876	998.844
782	995.818
783.123	993.333
784.246	991.219
785.37	989.777
786.492	988.525
787.614	989.439
788.737	989.66
789.858	989.159
790.979	988.413
792.101	986.977
793.222	985.149
794.342	982.731
795.463	980.849
796.583	979.184
797.702	976.96
798.822	974.724
799.942	972.59
801.06	969.933
802.179	965.764
803.297	962.226
804.415	958.601
805.533	955.656
806.651	951.624
807.768	947.538
808.885	944.588
810.001	941.399
811.118	939.095
812.233	936.738
813.349	934.269
814.464	932.334
815.58	931.543
816.695	931.309
817.809	931.086
818.924	931.955
820.038	932.7
821.152	934.782
822.265	936.38
823.378	938.705
824.491	940.482
825.604	943.243
826.716	945.204
827.828	944.985
828.94	942.895
830.051	941.595
831.162	939.811
832.273	936.637
833.383	934.792
834.494	931.274
835.604	926.668
836.714	921.883
837.823	919.304
838.932	916.922
840.041	914.704
841.15	913.789
842.258	913.858
843.366	915.08
844.474	914.895
845.581	914.14
846.688	914.029
847.795	913.778
848.901	912.803
850.008	910.898
851.115	909.695
852.22	908.719
853.325	906.835
854.43	905.989
855.536	905.44
856.64	903.108
857.745	899.594
858.848	895.86
859.952	892.389
861.055	887.936
862.158	885.406
863.261	881.98
864.364	877.037
865.466	872.113
866.568	866.054
867.67	860.077
868.771	855.274
869.873	850.552
870.973	846.591
872.074	844.428
873.174	841.385
874.274	838.984
875.374	836.735
876.473	835.932
877.572	836.707
878.671	836.965
879.77	837.068
880.868	837.518
881.966	838.344
883.064	838.487
884.161	839.146
885.258	839.302
886.356	838.743
887.452	838.648
888.548	837.465
889.645	836.737
890.74	835.12
891.836	833.033
892.931	831.126
894.025	829.126
895.12	828.059
896.214	827.497
897.308	827.829
898.402	828.533
899.495	829.019
900.588	830.138
901.681	830.702
902.774	831.247
903.866	831.969
904.958	833.184
906.05	834.685
907.142	837.391
908.233	839.902
909.324	842.705
910.414	844.764
911.504	846.685
912.594	846.895
913.684	846.556
914.774	845.828
915.863	844.589
916.952	842.209
918.041	838.333
919.129	833.125
920.217	826.773
921.305	820.701
922.392	814.654
923.48	808.799
924.567	803.445
925.653	797.309
926.74	791.485
927.825	787.796
928.911	786.305
929.997	784.913
931.082	782.851
932.166	780.505
933.252	779.367
934.336	777.754
935.42	777.35
936.504	777.659
937.587	776.849
938.671	775.062
939.753	772.845
940.836	770.841
941.919	768.434
943	766.552
944.082	764.61
945.163	762.389
946.245	759.851
947.326	756.576
948.406	753.159
949.487	750.231
950.567	747.638
951.647	745.244
952.727	743.015
953.805	741.574
954.885	739.788
955.964	738.994
957.042	739.002
958.12	739.048
959.198	739.187
960.276	739.182
961.352	738.042
962.43	736.853
963.507	736.354
964.583	735.801
965.659	734.833
966.735	733.13
967.81	732.781
968.885	733.384
969.961	733.886
971.036	735.607
972.11	738.562
973.184	741.97
974.258	745.445
975.332	747.753
976.405	749.818
977.478	752.556
978.551	755.086
979.624	757.285
980.696	758.967
981.767	759.865
982.839	758.524
983.911	756.914
984.982	755.29
986.052	753.376
987.123	752.824
988.193	752.334
989.263	751.652
990.333	750.535
991.403	749.896
992.471	748.935
993.54	747.985
994.608	747.068
995.677	746.159
996.745	744.23
997.812	742.839
998.88	741.622
999.947	740.058
1001.01	736.719
1002.08	733.301
1003.15	728.33
1004.21	723.704
1005.28	719.104
1006.34	714.354
1007.41	710.515
1008.47	706.437
1009.54	702.06
1010.6	698.01
1011.67	694.796
1012.73	691.522
1013.79	688.642
1014.86	686.012
1015.92	683.062
1016.98	680.349
1018.05	677.193
1019.11	674.755
1020.17	672.481
1021.23	670.184
1022.29	668.734
1023.35	667.596
1024.41	665.457
1025.47	663.818
1026.53	662.936
1027.59	661.638
1028.65	660.202
1029.71	657.264
1030.77	655.384
1031.83	654.384
1032.89	653.348
1033.95	652.631
1035	652.33
1036.06	651.72
1037.12	651.379
1038.18	652.133
1039.23	652.736
1040.29	653.582
1041.35	653.063
1042.4	654.357
1043.46	655.134
1044.51	656.456
1045.57	657.226
1046.62	657.327
1047.68	657.292
1048.73	655.094
1049.79	652.637
1050.84	649.337
1051.89	646.385
1052.95	642.909
1054	639.251
1055.05	633.487
1056.1	626.985
1057.16	622.138
1058.21	619.145
1059.26	617.315
1060.31	618.491
1061.36	622.062
1062.41	623.76
1063.46	626.073
1064.51	629.383
1065.56	626.62
1066.61	627.354
1067.66	627.789
1068.71	627.571
1069.76	627.653
1070.81	627.241
1071.85	626.933
1072.9	625.356
1073.95	623.416
1075	619.944
1076.04	616.373
1077.09	614.463
1078.14	612.763
1079.18	611.617
1080.23	609.449
1081.27	607.638
1082.32	606.754
1083.36	604.918
1084.41	603.611
1085.45	603.028
1086.5	601.981
1087.54	601.568
1088.59	600.017
1089.63	598.512
1090.67	597.361
1091.71	596.326
1092.76	595.786
1093.8	594.879
1094.84	594.107
1095.88	593.687
1096.92	593.869
1097.97	595.091
1099.01	594.756
1100.05	595.107
1101.09	596.708
1102.13	597.088
1103.17	597.844
1104.21	597.757
1105.25	597.832
1106.28	597.347
1107.32	598.001
1108.36	597.631
1109.4	597.337
1110.44	595.224
1111.47	592.179
1112.51	590.118
1113.55	587.47
1114.59	584.663
1115.62	582.137
1116.66	580.326
1117.69	578.327
1118.73	576.22
1119.77	574.349
1120.8	573.788
1121.84	573.144
1122.87	572.208
1123.9	572.429
1124.94	571.785
1125.97	571.859
1127	571.765
1128.04	573.354
1129.07	574.785
1130.1	577.667
1131.13	580.392
1132.17	584.201
1133.2	588.086
1134.23	592.399
1135.26	596.342
1136.29	600.281
1137.32	605.283
1138.35	609.633
1139.38	612.437
1140.41	614.553
1141.44	616.526
1142.47	617.722
1143.5	618.266
1144.53	618.76
1145.56	615.235
1146.59	616.172
1147.61	618.11
1148.64	620.073
1149.67	621.751
1150.7	624.551
1151.72	627.931
1152.75	630.077
1153.77	630.057
1154.8	629.573
1155.83	627.503
1156.85	623.028
1157.88	616.417
1158.9	609.11
1159.93	601.307
1160.95	594.648
1161.97	585.355
1163	572.712
1164.02	564.153
1165.04	557.861
1166.07	551.795
1167.09	548.599
1168.11	550.232
1169.13	548.574
1170.16	548.199
1171.18	550.208
1172.2	551.612
1173.22	554.172
1174.24	557.385
1175.26	560.821
1176.28	564.904
1177.3	568.802
1178.32	572.816
1179.34	576.182
1180.36	579.302
1181.38	581.224
1182.4	581.97
1183.41	582.179
1184.43	581.752
1185.45	584.554
1186.47	582.501
1187.48	578.608
1188.5	573.311
1189.52	567.411
1190.53	561.166
1191.55	554.03
1192.56	546.963
1193.58	540.911
1194.59	535.302
1195.61	530.645
1196.62	527.124
1197.64	523.985
1198.65	520.961
1199.67	518.886
1200.68	517.556
1201.69	517.009
1202.71	516.218
1203.72	515.911
1204.73	516.076
1205.74	517.005
1206.76	518.498
1207.77	520.091
1208.78	521.139
1209.79	521.953
1210.8	523.259
1211.81	524.888
1212.82	526.59
1213.83	528.459
1214.84	529.503
1215.85	530.542
1216.86	531.239
1217.87	530.764
1218.88	530.862
1219.88	530.807
1220.89	531.001
1221.9	530.273
1222.91	529.774
1223.92	529.838
1224.92	528.259
1225.93	527.473
1226.93	524.985
1227.94	521.725
1228.95	516.187
1229.95	510.153
1230.96	502.803
1231.96	497.862
1232.97	493.652
1233.97	489.232
1234.98	487.511
1235.98	484.439
1236.98	481.846
1237.99	479.564
1238.99	477.788
1239.99	476.609
1241	476.859
1242	476.877
1243	476.208
1244	475.171
1245	470.05
1246	468.354
1247.01	466.791
1248.01	465.127
1249.01	463.792
1250.01	463.302
1251.01	463.571
1252.01	463.845
1253	463.925
1254	464.88
1255	465.198
1256	465.903
1257	466.16
1258	465.985
1258.99	466.554
1259.99	467.186
1260.99	467.273
1261.99	465.963
1262.98	464.219
1263.98	462.861
1264.98	461.712
1265.97	460.333
1266.97	459.018
1267.96	457.725
1268.96	456.607
1269.95	455.576
1270.95	454.709
1271.94	452.956
1272.93	451.751
1273.93	451.241
1274.92	451.034
1275.91	451.064
1276.91	450.764
1277.9	451.411
1278.89	451.805
1279.88	452.369
1280.87	453.16
1281.87	454.307
1282.86	456.203
1283.85	457.214
1284.84	458.182
1285.83	457.916
1286.82	457.274
1287.81	454.905
1288.8	452.694
1289.79	449.859
1290.78	447.402
1291.76	445.83
1292.75	444.298
1293.74	441.99
1294.73	439.829
1295.72	437.512
1296.7	436.202
1297.69	436.014
1298.68	435.274
1299.66	435.002
1300.65	434.129
1301.64	432.28
1302.62	430.959
1303.61	429.542
1304.59	428.505
1305.58	427.214
1306.56	426.185
1307.55	425.551
1308.53	424.399
1309.51	423.492
1310.5	422.478
1311.48	422.291
1312.46	422.537
1313.45	422.755
1314.43	425.358
1315.41	428.086
1316.39	431.884
1317.38	436.784
1318.36	441.872
1319.34	446.455
1320.32	451.244
1321.3	455.082
1322.28	459.014
1323.26	463.332
1324.24	466.583
1325.22	468.429
1326.2	467.326
1327.18	463.883
1328.16	457.31
1329.13	452.737
1330.11	446.966
1331.09	441.097
1332.07	435.263
1333.04	429.954
1334.02	425.053
1335	420.852
1335.97	417.348
1336.95	414.337
1337.93	411.997
1338.9	408.427
1339.88	406.227
1340.85	404.254
1341.83	403.873
1342.8	402.592
1343.78	401.794
1344.75	400.852
1345.72	400.754
1346.7	400.152
1347.67	398.865
1348.65	397.701
1349.62	396.661
1350.59	394.545
1351.56	392.74
1352.53	391.303
1353.51	389.673
1354.48	388.166
1355.45	387.103
1356.42	385.515
1357.39	384.031
1358.36	382.583
1359.33	379.832
1360.3	376.68
1361.27	374.407
1362.24	372.466
1363.21	371.235
1364.18	369.379
1365.14	367.388
1366.11	366.504
1367.08	366.371
1368.05	366.718
1369.02	367.602
1369.98	369.438
1370.95	371.264
1371.92	372.188
1372.88	373.408
1373.85	374.859
1374.81	376.185
1375.78	376.92
1376.74	376.377
1377.71	376.338
1378.68	376.059
1379.64	376.639
1380.6	376.287
1381.57	375.622
1382.53	375.412
1383.49	375.511
1384.46	375.764
1385.42	375.537
1386.38	375.274
1387.34	374.823
1388.31	374.115
1389.27	373.44
1390.23	372.531
1391.19	370.373
1392.15	368.651
1393.11	366.752
1394.07	364.501
1395.03	361.912
1395.99	359.658
1396.95	357.149
1397.91	354.542
1398.87	351.708
1399.83	348.507
1400.79	346.154
1401.75	343.951
1402.7	342.45
1403.66	340.115
1404.62	337.576
1405.58	335.628
1406.53	334.457
1407.49	333.198
1408.45	332.888
1409.4	332.742
1410.36	333.483
1411.31	335.026
1412.27	336.299
1413.23	338.002
1414.18	339.455
1415.13	340.723
1416.09	341.783
1417.04	341.982
1418	342.065
1418.95	342.463
1419.9	342.762
1420.86	342.633
1421.81	343.122
1422.76	344.1
1423.71	345.318
1424.67	346.304
1425.62	348.228
1426.57	350.13
1427.52	351.642
1428.47	353.162
1429.42	354.582
1430.37	355.937
1431.32	356.039
1432.27	355.895
1433.22	355.697
1434.17	355.368
1435.12	354.4
1436.07	352.861
1437.02	351.871
1437.96	351.161
1438.91	350.076
1439.86	348.762
1440.81	347.793
1441.75	346.637
1442.7	345.123
1443.65	344.121
1444.59	343.028
1445.54	342.124
1446.49	341.069
1447.43	338.559
1448.38	337.31
1449.32	335.653
1450.27	334.378
1451.21	332.779
1452.15	331.294
1453.1	329.2
1454.04	327.349
1454.98	325.746
1455.93	323.854
1456.87	322.316
1457.81	320.338
1458.76	318.74
1459.7	317.008
1460.64	315.577
1461.58	314.015
1462.52	313.097
1463.46	311.839
1464.4	311.023
1465.34	310.484
1466.28	309.297
1467.22	308.575
1468.16	307.815
1469.1	307.401
1470.04	307.291
1470.98	307.054
1471.92	307.438
1472.86	307.026
1473.8	306.467
1474.73	306.649
1475.67	307.058
1476.61	307.495
1477.55	308.73
1478.48	309.785
1479.42	311.262
1480.36	311.98
1481.29	313.345
1482.23	314.31
1483.16	315.507
1484.1	316.34
1485.03	316.738
1485.97	316.368
1486.9	316.147
1487.84	315.535
1488.77	314.427
1489.7	312.832
1490.64	310.617
1491.57	307.391
1492.5	304.658
1493.44	303.314
1494.37	301.735
1495.3	301.525
1496.23	302.318
1497.16	303.405
1498.09	305.562
1499.02	307.026
1499.96	308.461
1500.89	310.021
1501.82	310.301
1502.75	308.461
1503.68	306.989
1504.61	306.333
1505.53	306.628
1506.46	307.612
1507.39	309.995
1508.32	313.077
1509.25	316.987
1510.18	321.378
1511.1	325.813
1512.03	329.642
1512.96	334.941
1513.88	341.019
1514.81	347.929
1515.74	354.984
1516.66	362.811
1517.59	367.201
1518.51	372.483
1519.44	377.37
1520.36	381.771
1521.29	385.609
1522.21	388.669
1523.14	390.162
1524.06	390.676
1524.98	390.349
1525.91	389.08
1526.83	387.011
1527.75	384.081
1528.68	380.484
1529.6	374.964
1530.52	369.416
1531.44	363.295
1532.36	357.183
1533.29	349.768
1534.21	342.167
1535.13	335.728
1536.05	329.551
1536.97	323.653
1537.89	317.611
1538.81	312.98
1539.73	309.416
1540.65	307.193
1541.56	304.122
1542.48	301.711
1543.4	299.998
1544.32	298.92
1545.24	298.518
1546.16	298.42
1547.07	298.386
1547.99	297.15
1548.91	295.346
1549.82	293.793
1550.74	291.924
1551.66	289.688
1552.57	287.312
1553.49	285.576
1554.4	283.523
1555.32	280.432
1556.23	277.359
1557.15	274.258
1558.06	271.274
1558.97	267.877
1559.89	264.786
1560.8	261.932
1561.71	259.714
1562.63	257.715
1563.54	256.061
1564.45	254.919
1565.36	253.686
1566.28	252.66
1567.19	251.798
1568.1	251.186
1569.01	250.495
1569.92	250.016
1570.83	249.765
1571.74	249.258
1572.65	249.113
1573.56	248.619
1574.47	247.738
1575.38	246.843
1576.29	245.899
1577.2	245.121
1578.11	244.594
1579.01	244.485
1579.92	244.583
1580.83	244.267
1581.74	244.183
1582.64	244.219
1583.55	244.135
1584.46	244.076
1585.36	243.894
1586.27	244.097
1587.18	244.822
1588.08	244.97
1588.99	244.939
1589.89	244.96
1590.8	245.007
1591.7	244.49
1592.61	244.079
1593.51	244.04
1594.41	243.958
1595.32	244.314
1596.22	244.725
1597.12	245.173
1598.03	245.633
1598.93	246.236
1599.83	246.985
1600.73	247.742
1601.64	248.162
1602.54	248.585
1603.44	248.869
1604.34	248.946
1605.24	248.67
1606.14	247.766
1607.04	246.833
1607.94	246.109
1608.84	245.439
1609.74	244.741
1610.64	243.808
1611.54	242.442
1612.44	240.27
1613.33	239.104
1614.23	238.069
1615.13	237.188
1616.03	236.46
1616.92	235.745
1617.82	235.598
1618.72	235.666
1619.61	235.798
1620.51	236.135
1621.41	236.314
1622.3	236.19
1623.2	236.164
1624.09	236.297
1624.99	236.476
1625.88	236.564
1626.78	236.127
1627.67	235.464
1628.57	234.797
1629.46	233.832
1630.35	232.981
1631.25	232.118
1632.14	231.303
1632.85	230.75
1633.78	230.205
1634.71	229.37
1635.64	229.16
1636.57	228.649
1637.5	228.267
1638.42	228.317
1639.35	228.127
1640.28	227.888
1641.21	227.937
1642.13	227.642
1643.06	227.345
1643.99	227.876
1644.91	227.935
1645.84	227.923
1646.77	227.351
1647.69	226.759
1648.62	226.529
1649.54	226.015
1650.47	225.393
1651.39	223.794
1652.32	222.192
1653.24	220.706
1654.17	219.336
1655.09	218.018
1656.01	217.094
1656.94	216.181
1657.86	215.263
1658.78	214.925
1659.71	215.057
1660.63	214.991
1661.55	214.46
1662.47	214.208
1663.4	214.038
1664.32	213.479
1665.24	213.277
1666.16	214.026
1667.08	215.493
1668	216.095
1668.92	216.717
1669.84	216.549
1670.76	216.524
1671.68	216.847
1672.6	216.817
1673.52	217.155
1674.44	216.966
1675.36	216.482
1676.28	215.558
1677.2	214.684
1678.12	213.948
1679.03	212.743
1679.95	212.121
1680.87	211.288
1681.79	210.685
1682.7	208.282
1683.62	206.33
1684.54	204.22
1685.45	202.618
1686.37	201.869
1687.29	201.606
1688.2	201.17
1689.12	200.588
1690.03	200.039
1690.95	199.778
1691.86	199.603
1692.78	199.406
1693.69	199.176
1694.61	199.617
1695.52	199.878
1696.43	198.724
1697.35	196.359
1698.26	194.859
1699.17	194.544
1700.09	194.215
1701	194.359
1701.91	193.962
1702.82	193.869
1703.74	193.615
1704.65	193.657
1705.56	194.218
1706.47	195.216
1707.38	196.439
1708.29	197.895
1709.2	199.004
1710.11	200.157
1711.02	200.69
1711.93	200.416
1712.84	200.119
1713.75	198.826
1714.66	197.998
1715.57	196.825
1716.48	195.963
1717.39	194.882
1718.3	194.545
1719.21	193.437
1720.11	192.132
1721.02	190.764
1721.93	189.71
1722.84	189.232
1723.74	188.866
1724.65	188.151
1725.56	187.416
1726.46	187.897
1727.37	187.982
1728.28	188.379
1729.18	188.889
1730.09	188.913
1730.99	189.335
1731.9	189.905
1732.8	189.866
1733.71	188.823
1734.61	188.864
1735.52	188.256
1736.42	188.021
1737.32	187.54
1738.23	187.534
1739.13	187.101
1740.03	186.719
1740.94	186.75
1741.84	185.996
1742.74	184.663
1743.64	183.512
1744.54	182.444
1745.45	181.65
1746.35	180.847
1747.25	180.377
1748.15	179.579
1749.05	178.645
1749.95	177.638
1750.85	176.396
1751.75	175.412
1752.65	174.227
1753.55	174.162
1754.45	174.201
1755.35	173.949
1756.25	173.998
1757.15	173.747
1758.05	173.133
1758.94	172.105
1759.84	171.355
1760.74	171.284
1761.64	171.84
1762.53	172.389
1763.43	172.212
1764.33	171.791
1765.23	171.438
1766.12	171.104
1767.02	171.273
1767.91	171.349
1768.81	171.848
1769.71	172.605
1770.6	173.214
1771.5	173.759
1772.39	174.43
1773.29	175.617
1774.18	176.368
1775.07	176.055
1775.97	175.476
1776.86	175.477
1777.76	175.724
1778.65	175.588
1779.54	175.428
1780.44	174.839
1781.33	174.371
1782.22	173.958
1783.11	172.992
1784.01	172.839
1784.9	172.451
1785.79	172.378
1786.68	172.291
1787.57	172.236
1788.46	172.111
1789.35	171.378
1790.24	170.584
1791.13	169.98
1792.02	168.51
1792.91	166.725
1793.8	165.285
1794.69	163.833
1795.58	162.149
1796.47	159.571
1797.36	157.932
1798.25	155.874
1799.14	155.58
