Acq. time (s)=	15
Accumulations=	2
Range (cm-¹)=	600...1800
Windows=	2
Autofocus=	Off
AutoExposure=	Off
Spike filter=	Multiple accum.
Delay time (s)=	1
Binning=	1
Readout mode=	Signal
DeNoise=	Standard
ICS correction=	Off
Dark correction=	Off
Inst. Process=	Off
Instrument=	XploRA
Detector=	Syncerity
Objective=	x20LWD
Grating=	1200 gr/mm
Filter=	25%
Laser (nm)=	785 
Slit (µm)=	100 
Hole (µm)=	300 
Laser pol=	None
Raman pol=	None
Output=	Camera
StageXY=	Marzhauser
StageZ=	
X (µm)=	278.3
Y (µm)=	2171.4
Project=	
Sample=	
Site=	
Title=	To2
Remark=	
Date=	29.10.2022 04:38
Acquired=	29.10.2022 04:38:59
600.839	323.499
602.009	327.473
603.178	331.994
604.347	336.419
605.516	339.754
606.684	342.456
607.852	344.774
609.02	346.733
610.187	348.638
611.355	350.22
612.521	351.805
613.688	352.681
614.854	353.428
616.02	354.097
617.185	354.784
618.351	355.4
619.516	356.378
620.681	357.157
621.846	358.123
623.009	359.059
624.174	360.06
625.337	361.035
626.501	362.048
627.664	363.059
628.826	364.049
629.988	365.002
631.151	365.929
632.313	366.816
633.474	367.67
634.635	368.337
635.797	369.016
636.958	369.422
638.117	369.575
639.278	369.887
640.437	370.144
641.597	370.511
642.756	371.685
643.915	373.897
645.074	374.828
646.233	375.001
647.391	373.819
648.548	372.885
649.706	372.512
650.863	373.314
652.02	374.319
653.176	375.496
654.333	376.578
655.489	377.583
656.645	378.468
657.8	379.282
658.955	380.1
660.11	380.853
661.264	381.607
662.419	382.339
663.573	383.014
664.727	383.591
665.88	384.323
667.033	384.988
668.186	385.683
669.338	386.336
670.491	386.97
671.643	387.594
672.794	388.215
673.945	388.63
675.096	388.958
676.247	389.163
677.398	388.611
678.548	387.983
679.698	387.35
680.847	386.626
681.997	386.642
683.146	387.256
684.294	387.974
685.443	388.83
686.591	389.754
687.739	390.681
688.887	391.397
690.034	392.276
691.181	393.094
692.328	393.9
693.474	394.559
694.62	394.99
695.766	394.921
696.911	393.508
698.057	392.103
699.202	390.483
700.346	388.217
701.49	386.192
702.635	385.242
703.779	384.652
704.922	384.825
706.065	385.51
707.208	386.164
708.351	386.375
709.493	385.895
710.635	385.055
711.776	383.727
712.918	384.486
714.059	382.518
715.2	380.551
716.341	377.831
717.481	369.469
718.621	366.971
719.761	366.403
720.9	366.87
722.04	368.424
723.178	371.165
724.317	373.841
725.455	381.206
726.594	382.972
727.731	385.176
728.868	385.94
730.005	375.207
731.142	372.708
732.279	372.523
733.415	373.87
734.551	376.706
735.686	379.185
736.822	382.449
737.957	388.176
739.092	390.772
740.226	389.424
741.36	388.035
742.495	386.619
743.628	385.488
744.762	384.843
745.895	384.938
747.027	383.654
748.16	382.327
749.292	380.969
750.423	379.691
751.555	378.417
752.686	377.163
753.817	375.869
754.949	374.611
756.079	373.284
757.209	372
758.339	370.747
759.469	369.427
760.597	368.144
761.727	366.879
762.856	365.646
763.984	364.254
765.112	363.465
766.24	362.699
767.367	362.34
768.494	361.675
769.622	360.96
770.749	359.861
771.874	358.762
773.001	357.451
774.127	355.994
775.253	354.389
776.377	352.61
777.503	350.762
778.627	348.797
779.751	346.765
780.876	344.704
782	342.573
783.123	340.304
784.246	338.097
785.37	336.224
786.492	335.719
787.614	335.477
788.737	336.227
789.858	337.303
790.979	338.418
792.101	338.794
793.222	339.223
794.342	339.525
795.463	339.716
796.583	339.389
797.702	338.473
798.822	337.592
799.942	336.577
801.06	335.489
802.179	334.432
803.297	333.42
804.415	332.656
805.533	332.059
806.651	331.551
807.768	331.267
808.885	331.081
810.001	331.087
811.118	331.556
812.233	332.114
813.349	332.463
814.464	331.915
815.58	331.382
816.695	330.724
817.809	329.855
818.924	328.691
820.038	327.438
821.152	326.044
822.265	324.463
823.378	323.029
824.491	322.174
825.604	321.552
826.716	321.625
827.828	322.848
828.94	324.242
830.051	325.663
831.162	326.633
832.273	327.467
833.383	327.991
834.494	328.323
835.604	328.141
836.714	327.136
837.823	325.986
838.932	324.766
840.041	323.719
841.15	322.732
842.258	321.823
843.366	321.075
844.474	320.55
845.581	320.168
846.688	319.842
847.795	319.578
848.901	319.594
850.008	319.699
851.115	319.85
852.22	319.955
853.325	319.861
854.43	318.901
855.536	318.225
856.64	317.568
857.745	316.898
858.848	316.332
859.952	315.303
861.055	314.186
862.158	312.813
863.261	311.067
864.364	309.921
865.466	309.206
866.568	308.249
867.67	307.149
868.771	305.674
869.873	304.216
870.973	302.626
872.074	301.028
873.174	299.486
874.274	297.988
875.374	296.734
876.473	295.399
877.572	294.27
878.671	293.207
879.77	292.351
880.868	291.684
881.966	291.212
883.064	290.979
884.161	291.242
885.258	291.701
886.356	292.573
887.452	293.588
888.548	294.569
889.645	294.923
890.74	294.763
891.836	294.132
892.931	293.39
894.025	292.639
895.12	292.091
896.214	291.582
897.308	291.169
898.402	290.804
899.495	290.607
900.588	290.406
901.681	290.077
902.774	290.357
903.866	290.708
904.958	291.068
906.05	291.41
907.142	291.709
908.233	291.972
909.324	291.772
910.414	291.529
911.504	291.216
912.594	290.884
913.684	290.421
914.774	289.921
915.863	289.361
916.952	288.687
918.041	287.936
919.129	287.068
920.217	286.12
921.305	285.026
922.392	283.747
923.48	282.44
924.567	281.005
925.653	279.38
926.74	276.814
927.825	274.078
928.911	272.903
929.997	272.008
931.082	271.202
932.166	270.687
933.252	269.968
934.336	269.12
935.42	268.304
936.504	267.653
937.587	267.275
938.671	267.096
939.753	267.392
940.836	268.01
941.919	268.892
943	269.75
944.082	269.956
945.163	269.83
946.245	269.447
947.326	268.59
948.406	267.51
949.487	266.128
950.567	264.541
951.647	262.834
952.727	261.393
953.805	261.077
954.885	260.787
955.964	260.198
957.042	259.737
958.12	259.049
959.198	258.433
960.276	257.823
961.352	257.317
962.43	257.018
963.507	256.898
964.583	257.421
965.659	257.992
966.735	258.984
967.81	259.503
968.885	259.611
969.961	259.391
971.036	259.123
972.11	258.847
973.184	258.578
974.258	258.365
975.332	258.196
976.405	258.036
977.478	257.977
978.551	258.03
979.624	258.108
980.696	258.314
981.767	258.533
982.839	258.585
983.911	258.967
984.982	259.442
986.052	259.89
987.123	260.344
988.193	260.775
989.263	261.153
990.333	261.499
991.403	261.572
992.471	261.279
993.54	260.914
994.608	260.273
995.677	259.488
996.745	258.607
997.812	257.676
998.88	256.669
999.947	256.019
1001.01	255.049
1002.08	254.037
1003.15	252.868
1004.21	251.772
1005.28	250.795
1006.34	249.713
1007.41	247.599
1008.47	245.496
1009.54	243.729
1010.6	242.363
1011.67	241.183
1012.73	240.317
1013.79	239.689
1014.86	239.236
1015.92	238.985
1016.98	239.016
1018.05	239.17
1019.11	239.563
1020.17	239.889
1021.23	240.085
1022.29	240.111
1023.35	239.618
1024.41	238.966
1025.47	237.927
1026.53	236.341
1027.59	234.277
1028.65	231.923
1029.71	229.625
1030.77	227.397
1031.83	225.71
1032.89	224.242
1033.95	223.04
1035	222.29
1036.06	221.83
1037.12	221.813
1038.18	222.22
1039.23	222.951
1040.29	224.121
1041.35	226.061
1042.4	228.02
1043.46	229.979
1044.51	231.895
1045.57	232.871
1046.62	233.661
1047.68	234.046
1048.73	234.187
1049.79	233.903
1050.84	233.121
1051.89	231.934
1052.95	230.444
1054	228.548
1055.05	226.484
1056.1	224.319
1057.16	222.339
1058.21	221.305
1059.26	220.572
1060.31	220.017
1061.36	219.73
1062.41	219.586
1063.46	219.472
1064.51	219.993
1065.56	220.604
1066.61	221.234
1067.66	221.808
1068.71	222.298
1069.76	222.752
1070.81	222.925
1071.85	222.858
1072.9	222.33
1073.95	221.754
1075	221.077
1076.04	220.366
1077.09	219.626
1078.14	218.836
1079.18	218.062
1080.23	217.23
1081.27	216.457
1082.32	215.823
1083.36	215.261
1084.41	214.696
1085.45	214.11
1086.5	213.462
1087.54	212.962
1088.59	212.232
1089.63	211.537
1090.67	210.841
1091.71	210.158
1092.76	209.51
1093.8	208.845
1094.84	208.268
1095.88	207.703
1096.92	207.221
1097.97	206.792
1099.01	206.422
1100.05	206.39
1101.09	206.306
1102.13	206.238
1103.17	206.377
1104.21	206.738
1105.25	207.224
1106.28	207.746
1107.32	208.252
1108.36	208.713
1109.4	209.058
1110.44	209.34
1111.47	208.538
1112.51	208.049
1113.55	206.919
1114.59	205.498
1115.62	204.05
1116.66	202.509
1117.69	200.935
1118.73	199.49
1119.77	198.371
1120.8	197.357
1121.84	196.655
1122.87	196.285
1123.9	196.87
1124.94	198.175
1125.97	199.729
1127	201.685
1128.04	203.618
1129.07	205.258
1130.1	206.664
1131.13	207.886
1132.17	208.406
1133.2	208.401
1134.23	207.905
1135.26	207.054
1136.29	206.056
1137.32	205.225
1138.35	204.301
1139.38	203.472
1140.41	202.817
1141.44	202.508
1142.47	202.642
1143.5	204.018
1144.53	206.035
1145.56	208.239
1146.59	210.486
1147.61	212.846
1148.64	215.599
1149.67	218.033
1150.7	220.144
1151.72	221.663
1152.75	222.257
1153.77	222.077
1154.8	221.19
1155.83	219.702
1156.85	217.762
1157.88	215.307
1158.9	212.609
1159.93	209.689
1160.95	206.619
1161.97	203.623
1163	200.828
1164.02	198.309
1165.04	196.009
1166.07	194.184
1167.09	192.895
1168.11	192.236
1169.13	192.453
1170.16	193.061
1171.18	193.93
1172.2	194.903
1173.22	195.391
1174.24	195.797
1175.26	196.047
1176.28	196.561
1177.3	197.383
1178.32	198.37
1179.34	199.212
1180.36	199.954
1181.38	200.233
1182.4	200.292
1183.41	200.17
1184.43	199.797
1185.45	199.374
1186.47	198.823
1187.48	198.277
1188.5	198.028
1189.52	197.508
1190.53	196.624
1191.55	194.31
1192.56	191.995
1193.58	189.711
1194.59	187.842
1195.61	186.971
1196.62	186.193
1197.64	185.596
1198.65	185.061
1199.67	184.566
1200.68	183.827
1201.69	183.095
1202.71	182.454
1203.72	181.851
1204.73	181.326
1205.74	180.886
1206.76	180.521
1207.77	180.213
1208.78	179.967
1209.79	179.808
1210.8	179.697
1211.81	179.829
1212.82	179.986
1213.83	180.395
1214.84	181.13
1215.85	181.895
1216.86	182.887
1217.87	183.471
1218.88	183.924
1219.88	183.047
1220.89	183.167
1221.9	183.457
1222.91	183.642
1223.92	183.748
1224.92	183.351
1225.93	182.557
1226.93	181.623
1227.94	180.651
1228.95	179.664
1229.95	179.474
1230.96	179.423
1231.96	179.263
1232.97	178.186
1233.97	176.848
1234.98	175.182
1235.98	173.451
1236.98	171.812
1237.99	170.418
1238.99	169.3
1239.99	168.356
1241	167.554
1242	166.861
1243	166.169
1244	165.648
1245	165.116
1246	164.666
1247.01	164.255
1248.01	163.816
1249.01	163.332
1250.01	162.84
1251.01	162.132
1252.01	161.411
1253	160.591
1254	159.708
1255	158.801
1256	157.914
1257	157.297
1258	157.943
1258.99	158.775
1259.99	159.867
1260.99	161.101
1261.99	162.296
1262.98	163.115
1263.98	164.001
1264.98	164.765
1265.97	165.236
1266.97	165.273
1267.96	164.305
1268.96	162.715
1269.95	160.879
1270.95	158.837
1271.94	156.781
1272.93	154.934
1273.93	153.139
1274.92	151.636
1275.91	150.714
1276.91	150.174
1277.9	150.438
1278.89	151.478
1279.88	153.07
1280.87	155.211
1281.87	157.716
1282.86	160.511
1283.85	162.296
1284.84	163.165
1285.83	162.902
1286.82	162.044
1287.81	160.356
1288.8	158.44
1289.79	156.469
1290.78	154.535
1291.76	153.191
1292.75	151.834
1293.74	150.6
1294.73	149.52
1295.72	151.221
1296.7	151.845
1297.69	153.095
1298.68	153.889
1299.66	154.323
1300.65	154.569
1301.64	154.632
1302.62	154.532
1303.61	154.351
1304.59	153.933
1305.58	153.315
1306.56	152.265
1307.55	151
1308.53	149.884
1309.51	148.939
1310.5	148.675
1311.48	148.655
1312.46	148.739
1313.45	149.14
1314.43	149.624
1315.41	150.491
1316.39	151.476
1317.38	152.606
1318.36	153.859
1319.34	155.162
1320.32	156.439
1321.3	157.615
1322.28	158.571
1323.26	158.993
1324.24	159.247
1325.22	158.611
1326.2	157.326
1327.18	155.861
1328.16	154.194
1329.13	152.224
1330.11	150.34
1331.09	148.537
1332.07	146.989
1333.04	145.794
1334.02	145.159
1335	144.822
1335.97	144.981
1336.95	145.236
1337.93	145.584
1338.9	145.866
1339.88	145.758
1340.85	145.571
1341.83	145.331
1342.8	144.778
1343.78	144.176
1344.75	143.561
1345.72	142.997
1346.7	142.422
1347.67	141.978
1348.65	141.507
1349.62	141.194
1350.59	141.222
1351.56	141.285
1352.53	141.514
1353.51	141.774
1354.48	141.912
1355.45	142.019
1356.42	141.987
1357.39	141.726
1358.36	141.552
1359.33	141.469
1360.3	141.767
1361.27	142.087
1362.24	142.134
1363.21	141.422
1364.18	139.128
1365.14	138.544
1366.11	137.632
1367.08	137.593
1368.05	137.57
1369.02	137.604
1369.98	137.55
1370.95	137.245
1371.92	136.409
1372.88	135.377
1373.85	134.055
1374.81	132.654
1375.78	131.464
1376.74	131.252
1377.71	132.275
1378.68	133.752
1379.64	136.635
1380.6	133.758
1381.57	132.546
1382.53	135.79
1383.49	141.575
1384.46	141.891
1385.42	142.852
1386.38	143.461
1387.34	140.227
1388.31	135.788
1389.27	127.49
1390.23	128.677
1391.19	131.74
1392.15	126.497
1393.11	129.208
1394.07	129.115
1395.03	129.499
1395.99	129.787
1396.95	129.89
1397.91	130.021
1398.87	129.334
1399.83	128.328
1400.79	127.311
1401.75	126.321
1402.7	125.417
1403.66	124.369
1404.62	123.318
1405.58	122.423
1406.53	121.538
1407.49	121.32
1408.45	121.833
1409.4	122.407
1410.36	123.23
1411.31	124.112
1412.27	124.628
1413.23	125.354
1414.18	126.059
1415.13	126.568
1416.09	126.896
1417.04	126.796
1418	126.218
1418.95	124.85
1419.9	123.391
1420.86	122.111
1421.81	121.063
1422.76	120.324
1423.71	119.867
1424.67	119.679
1425.62	119.594
1426.57	119.72
1427.52	120.07
1428.47	120.519
1429.42	121.146
1430.37	121.836
1431.32	122.649
1432.27	123.487
1433.22	124.315
1434.17	125.208
1435.12	126.087
1436.07	126.693
1437.02	127.106
1437.96	127.007
1438.91	126.432
1439.86	125.529
1440.81	124.325
1441.75	123.126
1442.7	121.875
1443.65	120.928
1444.59	120.442
1445.54	120.274
1446.49	120.069
1447.43	119.903
1448.38	119.65
1449.32	119.158
1450.27	119.124
1451.21	119.062
1452.15	118.971
1453.1	118.844
1454.04	118.92
1454.98	118.26
1455.93	117.535
1456.87	116.557
1457.81	115.681
1458.76	114.85
1459.7	114.073
1460.64	113.315
1461.58	112.668
1462.52	112.06
1463.46	111.685
1464.4	111.407
1465.34	111.232
1466.28	111.109
1467.22	111.048
1468.16	111.068
1469.1	111.187
1470.04	111.365
1470.98	111.591
1471.92	111.875
1472.86	112.179
1473.8	112.508
1474.73	112.838
1475.67	112.931
1476.61	113.22
1477.55	113.544
1478.48	113.828
1479.42	114.089
1480.36	114.337
1481.29	114.46
1482.23	114.565
1483.16	114.563
1484.1	114.272
1485.03	113.743
1485.97	112.98
1486.9	112.176
1487.84	111.398
1488.77	110.695
1489.7	110.046
1490.64	109.86
1491.57	109.616
1492.5	109.305
1493.44	109.555
1494.37	109.866
1495.3	110.29
1496.23	110.711
1497.16	111.042
1498.09	111.371
1499.02	111.68
1499.96	111.558
1500.89	111.619
1501.82	111.682
1502.75	111.736
1503.68	111.771
1504.61	111.88
1505.53	111.982
1506.46	112.206
1507.39	112.304
1508.32	112.445
1509.25	112.675
1510.18	113.13
1511.1	114.029
1512.03	115.845
1512.96	117.915
1513.88	120.357
1514.81	123.101
1515.74	126.037
1516.66	129.12
1517.59	132.202
1518.51	135.356
1519.44	138.298
1520.36	139.088
1521.29	140.194
1522.21	141.145
1523.14	142.032
1524.06	142.621
1524.98	142.041
1525.91	140.48
1526.83	138.418
1527.75	136.195
1528.68	133.925
1529.6	131.655
1530.52	129.504
1531.44	127.324
1532.36	125.216
1533.29	123.196
1534.21	121.299
1535.13	119.504
1536.05	117.841
1536.97	116.297
1537.89	114.787
1538.81	113.203
1539.73	111.992
1540.65	110.892
1541.56	110.089
1542.48	109.796
1543.4	109.556
1544.32	109.371
1545.24	109.329
1546.16	109.301
1547.07	109.207
1547.99	109.063
1548.91	108.502
1549.82	107.937
1550.74	107.316
1551.66	106.603
1552.57	105.484
1553.49	104.282
1554.4	103.038
1555.32	101.706
1556.23	100.414
1557.15	99.0835
1558.06	97.8537
1558.97	96.647
1559.89	95.7134
1560.8	94.9021
1561.71	94.0359
1562.63	93.5097
1563.54	92.6534
1564.45	91.8238
1565.36	91.013
1566.28	90.323
1567.19	89.7016
1568.1	86.1
1569.01	86.0558
1569.92	88.2351
1570.83	89.9943
1571.74	90.9426
1572.65	91.7967
1573.56	92.6842
1574.47	92.8767
1575.38	92.8948
1576.29	92.5528
1577.2	92.018
1578.11	90.5927
1579.01	89.9614
1579.92	89.4113
1580.83	88.9574
1581.74	88.5702
1582.64	88.2566
1583.55	88.0157
1584.46	87.9579
1585.36	88.049
1586.27	88.0301
1587.18	88.1726
1588.08	88.3845
1588.99	88.6279
1589.89	88.8135
1590.8	89.0528
1591.7	89.4042
1592.61	89.9691
1593.51	90.2632
1594.41	90.35
1595.32	90.4788
1596.22	90.7992
1597.12	91.0291
1598.03	91.3451
1598.93	91.5725
1599.83	91.7541
1600.73	91.6857
1601.64	91.4538
1602.54	91.3498
1603.44	91.285
1604.34	91.0555
1605.24	90.6213
1606.14	90.0709
1607.04	89.5109
1607.94	88.8619
1608.84	88.1134
1609.74	87.3697
1610.64	86.9611
1611.54	86.3924
1612.44	86.0419
1613.33	85.5549
1614.23	85.549
1615.13	85.7126
1616.03	85.9453
1616.92	86.0241
1617.82	85.7818
1618.72	85.7277
1619.61	86.0043
1620.51	85.5996
1621.41	85.1635
1622.3	84.6899
1623.2	84.3792
1624.09	84.0197
1624.99	83.9353
1625.88	83.2893
1626.78	81.4205
1627.67	79.5086
1628.57	77.9354
1629.46	77.1329
1630.35	78.3049
1631.25	79.9471
1632.14	82.1687
1632.85	82.8233
1633.78	82.9312
1634.71	81.729
1635.64	80.7385
1636.57	80.7469
1637.5	80.7475
1638.42	80.7366
1639.35	81.2738
1640.28	82.1933
1641.21	82.4844
1642.13	82.29
1643.06	82.2718
1643.99	80.8132
1644.91	80.1631
1645.84	80.699
1646.77	80.7497
1647.69	80.8475
1648.62	81.1556
1649.54	81.3033
1650.47	81.4416
1651.39	81.6211
1652.32	81.2735
1653.24	80.797
1654.17	80.4909
1655.09	80.181
1656.01	79.4568
1656.94	78.7321
1657.86	78.5711
1658.78	78.8934
1659.71	79.0437
1660.63	79.2084
1661.55	79.2801
1662.47	79.5901
1663.4	80.4926
1664.32	81.5277
1665.24	81.9908
1666.16	82.6659
1667.08	82.8979
1668	82.8476
1668.92	82.4518
1669.84	81.8043
1670.76	80.9126
1671.68	80.1359
1672.6	78.9584
1673.52	77.907
1674.44	76.8299
1675.36	76.3296
1676.28	76.3637
1677.2	76.2637
1678.12	76.4472
1679.03	76.9243
1679.95	77.4443
1680.87	77.9015
1681.79	77.8954
1682.7	77.7264
1683.62	77.3915
1684.54	77.3092
1685.45	76.9329
1686.37	76.6946
1687.29	76.2681
1688.2	75.6618
1689.12	75.3678
1690.03	75.3726
1690.95	75.1788
1691.86	74.9601
1692.78	74.4324
1693.69	74.2196
1694.61	74.1905
1695.52	74.0263
1696.43	73.7625
1697.35	73.3147
1698.26	73.0506
1699.17	72.6637
1700.09	72.1985
1701	71.8214
1701.91	71.4419
1702.82	71.0353
1703.74	70.5662
1704.65	70.0826
1705.56	69.9503
1706.47	70.4837
1707.38	71.2257
1708.29	71.803
1709.2	72.1222
1710.11	72.7455
1711.02	72.7919
1711.93	72.8576
1712.84	72.6936
1713.75	72.3005
1714.66	71.9806
1715.57	71.6073
1716.48	70.5924
1717.39	70.2558
1718.3	69.9769
1719.21	69.3021
1720.11	69.081
1721.02	68.9678
1721.93	69.4451
1722.84	70.0674
1723.74	70.9249
1724.65	71.7565
1725.56	72.2896
1726.46	72.6968
1727.37	72.8813
1728.28	72.4575
1729.18	71.7059
1730.09	70.9095
1730.99	70.0688
1731.9	69.0589
1732.8	68.5269
1733.71	67.8887
1734.61	67.3553
1735.52	67.3458
1736.42	67.0493
1737.32	67.2443
1738.23	68.077
1739.13	68.6909
1740.03	69.08
1740.94	69.7945
1741.84	70.6372
1742.74	70.062
1743.64	69.51
1744.54	69.1296
1745.45	68.7264
1746.35	68.6726
1747.25	68.8009
1748.15	69.4291
1749.05	68.4146
1749.95	67.0473
1750.85	65.8891
1751.75	64.8279
1752.65	63.8819
1753.55	63.9593
1754.45	63.8079
1755.35	63.4993
1756.25	63.3811
1757.15	62.9906
1758.05	63.1063
1758.94	63.1113
1759.84	63.4167
1760.74	63.8656
1761.64	64.8911
1762.53	65.3345
1763.43	65.2327
1764.33	65.4553
1765.23	65.9236
1766.12	66.0015
1767.02	66.1044
1767.91	65.7478
1768.81	65.8105
1769.71	65.5785
1770.6	65.6016
1771.5	66.1298
1772.39	66.9262
1773.29	67.5251
1774.18	67.9116
1775.07	68.202
1775.97	68.273
1776.86	68.3263
1777.76	68.3476
1778.65	68.7462
1779.54	69.0627
1780.44	69.017
1781.33	68.8734
1782.22	68.5298
1783.11	67.8439
1784.01	66.6156
1784.9	65.356
1785.79	64.0353
1786.68	62.9301
1787.57	61.9023
1788.46	61.2457
1789.35	60.7201
1790.24	60.5626
1791.13	60.3875
1792.02	60.4982
1792.91	61.0327
1793.8	61.5251
1794.69	61.6206
1795.58	61.8959
1796.47	62.5471
1797.36	62.0422
1798.25	61.1581
1799.14	60.3853
