Acq. time (s)=	15
Accumulations=	2
Range (cm-¹)=	600...1800
Windows=	2
Autofocus=	Off
AutoExposure=	On
Spike filter=	Multiple accum.
Delay time (s)=	1
Binning=	1
Readout mode=	Signal
DeNoise=	Standard
ICS correction=	Off
Dark correction=	Off
Inst. Process=	Off
Instrument=	XploRA
Detector=	Syncerity
Objective=	x20LWD
Grating=	1200 gr/mm
Filter=	25%
Laser (nm)=	785 
Slit (µm)=	100 
Hole (µm)=	300 
Laser pol=	None
Raman pol=	None
Output=	Camera
StageXY=	Marzhauser
StageZ=	
X (µm)=	-6248.2
Y (µm)=	-1933
Project=	
Sample=	
Site=	
Title=	To4-T
Remark=	
Date=	14.10.2022 20:42
Acquired=	14.10.2022 20:42:33
600.787	1095.96
601.956	1103.1
603.126	1106.91
604.294	1112.31
605.463	1117.32
606.631	1124.08
607.8	1131.25
608.967	1140.93
610.135	1149.66
611.302	1157.64
612.468	1164.77
613.635	1170.1
614.802	1175.98
615.968	1181.23
617.133	1186.09
618.299	1190.76
619.464	1195.1
620.629	1198.53
621.793	1202.68
622.958	1207.64
624.121	1211.39
625.285	1214.02
626.448	1214.73
627.612	1217.35
628.774	1220.28
629.937	1223.65
631.099	1226.69
632.261	1229.11
633.423	1228.63
634.584	1228.23
635.745	1227.54
636.906	1226.49
638.066	1223.61
639.227	1219.4
640.386	1213.7
641.546	1211.15
642.705	1208.11
643.864	1205.34
645.023	1203.36
646.181	1201.83
647.339	1200.64
648.497	1201.68
649.655	1202.27
650.812	1204.57
651.969	1207.13
653.125	1210.24
654.282	1213.38
655.438	1215.54
656.593	1216.32
657.75	1217
658.905	1217.68
660.059	1218.98
661.214	1218.88
662.368	1219.16
663.522	1219.88
664.676	1220.86
665.83	1221.6
666.983	1221.79
668.136	1220.93
669.288	1219.13
670.441	1219.75
671.592	1220.56
672.744	1218.15
673.895	1216.66
675.046	1215.27
676.197	1216.13
677.348	1215.82
678.498	1215.84
679.648	1216.59
680.798	1217.66
681.947	1218.9
683.096	1220.29
684.245	1220.36
685.394	1219.27
686.542	1218.25
687.69	1216.23
688.837	1215.48
689.984	1215.35
691.132	1215
692.278	1213.81
693.425	1211.27
694.571	1209.98
695.717	1208.43
696.863	1207.83
698.008	1206.85
699.152	1205.94
700.298	1205.11
701.442	1206.04
702.586	1207.02
703.73	1206.96
704.873	1207.82
706.017	1207.28
707.16	1203.25
708.302	1199.87
709.445	1195.62
710.586	1192.64
711.729	1188.61
712.87	1185.08
714.012	1180.61
715.152	1176.38
716.293	1170.2
717.433	1164.37
718.573	1160.17
719.713	1157.09
720.853	1153.61
721.991	1151.91
723.131	1151.24
724.269	1152.24
725.408	1153.3
726.545	1152.34
727.683	1152.39
728.821	1152.76
729.958	1154.49
731.095	1157.53
732.231	1161.19
733.368	1166.05
734.503	1170.85
735.639	1173.94
736.775	1178.17
737.91	1183.84
739.045	1188.45
740.179	1194.4
741.313	1198.89
742.447	1200.8
743.581	1201.78
744.714	1202.89
745.847	1202.55
746.98	1198.02
748.113	1190.8
749.245	1185.02
750.377	1180.53
751.509	1177.02
752.64	1171.39
753.771	1165.53
754.902	1158.68
756.033	1150.37
757.163	1142.85
758.293	1134.87
759.423	1128.16
760.551	1120.69
761.681	1113.61
762.81	1109.78
763.938	1105.34
765.066	1099.94
766.194	1095.04
767.321	1090.37
768.449	1085.72
769.576	1082.53
770.703	1078.64
771.83	1074.6
772.955	1070.4
774.081	1066.35
775.207	1062.44
776.332	1058.74
777.457	1054.81
778.582	1050.41
779.707	1045.87
780.831	1042.26
781.954	1039
783.078	1035.94
784.201	1032.9
785.324	1028.87
786.447	1025.63
787.569	1022.66
788.691	1019.27
789.813	1015.8
790.935	1012.54
792.056	1010.3
793.177	1007.36
794.297	1005.55
795.418	1003.88
796.539	1002.26
797.658	1001.63
798.777	1000.69
799.897	1001.27
801.016	1002.28
802.134	1002.64
803.253	1002.05
804.371	1001.23
805.489	1001.02
806.606	999.555
807.723	997.383
808.84	993.911
809.957	988.706
811.073	984.113
812.19	980.577
813.305	976.424
814.421	972.282
815.536	968.344
816.651	965.781
817.766	963.397
818.88	961.778
819.994	960.131
821.108	959.44
822.221	959.081
823.335	959.25
824.448	960.363
825.56	960.877
826.673	961.089
827.784	961.609
828.897	961.077
830.008	960.829
831.119	960.088
832.23	959.671
833.341	959.855
834.451	959.903
835.561	959.349
836.671	958.256
837.78	956.875
838.89	955.388
839.998	953.974
841.108	953.49
842.216	953.244
843.324	953.925
844.431	947.001
845.539	944.441
846.646	940.562
847.753	939.682
848.859	940.791
849.966	942.503
851.071	941.424
852.178	939.29
853.283	936.756
854.388	935.876
855.494	933.415
856.598	929.705
857.703	917.669
858.806	912.485
859.91	910.688
861.014	921.442
862.116	919.656
863.22	917.458
864.322	914.6
865.425	911.077
866.527	906.826
867.628	901.923
868.73	898.093
869.831	894.403
870.932	891.007
872.032	888.424
873.133	884.814
874.233	881.481
875.333	878.724
876.432	875.499
877.532	873.348
878.631	872.396
879.729	872.785
880.828	872.775
881.926	872.604
883.023	873.167
884.121	872.589
885.218	872.771
886.315	873.062
887.412	872.191
888.508	869.952
889.604	867.465
890.699	866.278
891.795	865.357
892.89	864.958
893.985	863.484
895.08	862.051
896.174	859.64
897.268	855.456
898.362	853.726
899.456	853.011
900.549	852.515
901.642	851.786
902.734	851.36
903.827	850.526
904.919	850.4
906.011	850.331
907.102	850.93
908.193	852.681
909.284	853.88
910.375	855.613
911.465	858.505
912.555	860.953
913.645	862.995
914.734	864.242
915.824	863.918
916.913	863.049
918.001	860.516
919.09	857.406
920.177	853.735
921.266	849.151
922.353	843.646
923.44	837.916
924.527	831.6
925.614	825.852
926.7	819.307
927.786	812.794
928.873	807.699
929.958	803.718
931.043	798.563
932.128	795.959
933.213	794.381
934.297	794.63
935.381	792.718
936.465	791.955
937.549	789.027
938.632	783.938
939.715	779.343
940.798	774.116
941.881	769.289
942.962	764.869
944.044	761.959
945.125	759.039
946.207	756.7
947.288	756.856
948.368	754.896
949.449	754.827
950.529	754.682
951.61	756.622
952.689	757.185
953.769	765.813
954.847	771.358
955.926	770.557
957.004	770.148
958.082	762.244
959.16	741.524
960.238	745.233
961.316	750.516
962.392	749.333
963.469	754.033
964.546	759.595
965.622	747.121
966.698	748.268
967.774	748.577
968.849	748.904
969.924	748.974
970.998	748.951
972.073	750.099
973.148	751.195
974.221	747.293
975.295	745.074
976.369	745.539
977.441	753.616
978.514	760.619
979.587	762.681
980.659	766.816
981.731	770.934
982.802	774.834
983.874	776.932
984.945	778.894
986.016	781.114
987.087	782.229
988.157	782.964
989.227	783.513
990.296	782.733
991.366	780.938
992.435	778.626
993.504	776.472
994.573	773.074
995.641	769.801
996.709	766.779
997.777	764.14
998.844	761.127
999.911	757.612
1000.98	752.191
1002.05	749.147
1003.11	745.384
1004.18	742.642
1005.24	739.625
1006.31	737.995
1007.37	736.085
1008.44	734.162
1009.5	733.529
1010.57	728.22
1011.63	723.234
1012.7	717.919
1013.76	713.53
1014.82	709.003
1015.89	704.658
1016.95	700.883
1018.01	695.04
1019.07	688.704
1020.13	682.83
1021.2	677.275
1022.26	671.845
1023.32	667.621
1024.38	663.078
1025.44	660.094
1026.5	658.662
1027.56	660.362
1028.62	660.252
1029.68	657.114
1030.74	654.905
1031.8	651.969
1032.85	651.701
1033.91	650.828
1034.97	650.164
1036.03	646.48
1037.09	645.918
1038.14	645.994
1039.2	647.489
1040.26	649.463
1041.31	651.994
1042.37	658.819
1043.42	664.508
1044.48	667.995
1045.53	670.636
1046.59	667.546
1047.64	665.976
1048.7	664.329
1049.75	662.072
1050.81	659.971
1051.86	658.041
1052.91	655.918
1053.97	651.674
1055.02	647.108
1056.07	643.489
1057.12	639.929
1058.17	637.393
1059.23	634.959
1060.28	633.345
1061.33	632.255
1062.38	631.866
1063.43	632.815
1064.48	634.14
1065.53	637.052
1066.58	639.257
1067.63	640.756
1068.68	640.463
1069.72	637.93
1070.77	636.221
1071.82	634.982
1072.87	634.31
1073.92	632.227
1074.96	628.392
1076.01	625.577
1077.06	622.28
1078.1	618.858
1079.15	614.991
1080.2	612.236
1081.24	610.261
1082.29	608.649
1083.33	606.846
1084.38	605.89
1085.42	604.592
1086.47	603.413
1087.51	602.782
1088.55	601.932
1089.6	600.652
1090.64	599.436
1091.68	599.654
1092.73	597.959
1093.77	596.332
1094.81	594.288
1095.85	592.016
1096.89	590.154
1097.93	587.682
1098.98	585.13
1100.02	583.235
1101.06	581.894
1102.1	581.603
1103.14	581.776
1104.18	582.6
1105.21	581.451
1106.25	583.359
1107.29	587.82
1108.33	593.621
1109.37	596.514
1110.41	601.396
1111.44	602.182
1112.48	602.353
1113.52	599.579
1114.56	592.693
1115.59	588.636
1116.63	586.484
1117.66	584.356
1118.7	584.24
1119.73	585.697
1120.77	585.756
1121.8	584.855
1122.84	582.352
1123.87	580.435
1124.91	579.679
1125.94	579.581
1126.97	578.827
1128.01	577.243
1129.04	576.655
1130.07	574.891
1131.11	574.639
1132.14	574.015
1133.17	575.406
1134.2	577.667
1135.23	580.626
1136.26	584.561
1137.29	589.75
1138.32	595.438
1139.35	602.418
1140.38	608.106
1141.41	612.781
1142.44	617.318
1143.47	620.849
1144.5	623.158
1145.53	625.726
1146.56	627.298
1147.58	628.526
1148.61	627.615
1149.64	629.345
1150.67	631.442
1151.69	637.679
1152.72	643.394
1153.75	650.992
1154.77	666.569
1155.8	671.333
1156.82	670.64
1157.85	662.781
1158.87	654.859
1159.9	643.481
1160.92	628.405
1161.95	611.663
1162.97	595.835
1163.99	580.777
1165.02	568.21
1166.04	558.843
1167.06	550.293
1168.08	542.857
1169.11	537.203
1170.13	533.185
1171.15	538.414
1172.17	540.501
1173.19	545.168
1174.21	549.668
1175.23	555.581
1176.25	563.702
1177.27	571.135
1178.29	579.268
1179.31	586.168
1180.33	591.228
1181.35	594.786
1182.37	596.436
1183.39	598.585
1184.4	598.937
1185.42	598.149
1186.44	595.167
1187.46	590.982
1188.47	585.393
1189.49	579.932
1190.51	574.011
1191.52	566.531
1192.54	557.929
1193.55	549.609
1194.57	540.99
1195.58	533.818
1196.6	528.305
1197.61	523.429
1198.63	519.965
1199.64	517.062
1200.65	516.13
1201.67	516.206
1202.68	516.49
1203.69	516.643
1204.7	517.735
1205.72	519.795
1206.73	522.001
1207.74	523.801
1208.75	525.612
1209.76	527.563
1210.77	529.211
1211.78	528.372
1212.79	527.012
1213.8	526.264
1214.81	524.529
1215.82	522.487
1216.83	521.101
1217.84	520.241
1218.85	520.093
1219.86	519.805
1220.87	519.882
1221.87	518.658
1222.88	517.247
1223.89	517.154
1224.9	517.694
1225.9	518.532
1226.91	519.099
1227.92	519.523
1228.92	519.362
1229.93	517.741
1230.93	514.697
1231.94	510.389
1232.94	505.535
1233.95	500.555
1234.95	494.254
1235.95	487.848
1236.96	482.297
1237.96	476.3
1238.96	471.682
1239.97	466.388
1240.97	461.861
1241.97	458.207
1242.97	455.539
1243.98	453.564
1244.98	451.166
1245.98	449.807
1246.98	449.507
1247.98	449.449
1248.98	448.695
1249.98	447.301
1250.98	446.418
1251.98	445.57
1252.98	444.559
1253.98	442.765
1254.98	441.442
1255.98	441.045
1256.97	441.572
1257.97	441.689
1258.97	442.619
1259.97	442.367
1260.97	442.855
1261.96	442.88
1262.96	442.341
1263.95	441.403
1264.95	440.556
1265.95	439.347
1266.94	438.434
1267.94	437.546
1268.93	436.984
1269.93	435.649
1270.92	435.031
1271.92	433.823
1272.91	432.08
1273.9	430.177
1274.9	428.887
1275.89	429.027
1276.88	428.749
1277.87	428.731
1278.87	429.418
1279.86	431.59
1280.85	434.457
1281.84	436.869
1282.83	439.494
1283.82	441.262
1284.81	443.209
1285.81	444.585
1286.8	445.132
1287.79	444.72
1288.77	443.464
1289.76	440.188
1290.75	435.918
1291.74	431.41
1292.73	427.267
1293.72	423.497
1294.71	419.664
1295.69	416.382
1296.68	413.702
1297.67	412.642
1298.65	412.548
1299.64	412.83
1300.63	412.742
1301.61	413.154
1302.6	414.336
1303.58	414.943
1304.57	416.003
1305.55	416.322
1306.54	415.719
1307.52	414.459
1308.51	412.45
1309.49	411.013
1310.48	409.266
1311.46	408.067
1312.44	406.71
1313.42	405.925
1314.41	405.664
1315.39	404.665
1316.37	403.539
1317.35	405.961
1318.33	408.899
1319.32	412.958
1320.3	419.452
1321.28	427.064
1322.26	434.422
1323.24	443.731
1324.22	451.941
1325.2	458.772
1326.18	465.069
1327.15	467.466
1328.13	464.791
1329.11	460.677
1330.09	453.155
1331.07	444.963
1332.05	437.397
1333.02	429.287
1334	421.543
1334.98	413.244
1335.95	405.853
1336.93	400.082
1337.91	394.952
1338.88	390.717
1339.86	389.586
1340.83	385.99
1341.81	386.211
1342.78	383.742
1343.76	381.746
1344.73	380.535
1345.7	379.478
1346.68	378.167
1347.65	376.963
1348.62	376.194
1349.6	375.338
1350.57	375.592
1351.54	375.851
1352.51	375.871
1353.49	374.943
1354.46	373.421
1355.43	372.634
1356.4	371.59
1357.37	370.615
1358.34	369.578
1359.31	368.519
1360.28	366.6
1361.25	364.951
1362.22	362.511
1363.19	360.258
1364.16	358.902
1365.12	357.744
1366.09	357.212
1367.06	356.912
1368.03	357.192
1369	356.984
1369.96	357.294
1370.93	356.801
1371.9	356.434
1372.86	355.294
1373.83	355.318
1374.79	355.425
1375.76	355.109
1376.73	354.225
1377.69	354.263
1378.66	354.871
1379.62	355.021
1380.58	355.113
1381.55	354.14
1382.51	353.535
1383.48	353.113
1384.44	352.584
1385.4	351.989
1386.36	352.426
1387.33	352.611
1388.29	353.45
1389.25	353.592
1390.21	352.369
1391.17	350.881
1392.13	349.191
1393.09	347.9
1394.06	345.711
1395.01	343.515
1395.97	340.946
1396.93	338.298
1397.89	335.938
1398.85	333.215
1399.81	331.101
1400.77	328.337
1401.73	326.214
1402.69	324.297
1403.64	322.45
1404.6	321.319
1405.56	320.24
1406.52	319.745
1407.47	319.538
1408.43	318.803
1409.39	318.354
1410.34	318.695
1411.3	318.405
1412.25	318.157
1413.21	318.204
1414.16	317.735
1415.12	315.741
1416.07	317.305
1417.03	319.642
1417.98	323.225
1418.93	327.92
1419.89	331.558
1420.84	332.845
1421.79	332.901
1422.74	331.343
1423.7	326.574
1424.65	315.316
1425.6	317.158
1426.55	319.091
1427.5	325.479
1428.45	331.361
1429.4	336.142
1430.35	338.576
1431.3	336.432
1432.25	336.92
1433.2	337.514
1434.15	338.6
1435.1	339.27
1436.05	339.603
1437	341.925
1437.95	341.971
1438.89	341.827
1439.84	341.119
1440.79	339.631
1441.74	337.472
1442.68	334.132
1443.63	331.324
1444.58	328.637
1445.52	325.079
1446.47	320.946
1447.41	317.413
1448.36	314.519
1449.3	311.999
1450.25	309.569
1451.19	308.209
1452.14	307.823
1453.08	307.79
1454.03	307.658
1454.97	308.148
1455.91	308.411
1456.85	308.692
1457.8	308.311
1458.74	307.235
1459.68	306.243
1460.62	304.708
1461.57	301.963
1462.51	300.114
1463.45	298.116
1464.39	296.111
1465.33	294.483
1466.27	293.52
1467.21	292.544
1468.15	291.763
1469.09	290.716
1470.03	290.122
1470.97	289.775
1471.9	289.464
1472.84	289.302
1473.78	289.997
1474.72	291.012
1475.66	291.729
1476.59	292.218
1477.53	292.43
1478.47	293.245
1479.4	294.48
1480.34	295.37
1481.28	296.241
1482.21	296.792
1483.15	297.636
1484.08	298.192
1485.02	297.949
1485.95	297.171
1486.89	296.139
1487.82	294.258
1488.76	291.883
1489.69	290.789
1490.62	289.606
1491.56	289.303
1492.49	288.494
1493.42	287.921
1494.35	286.825
1495.29	287.179
1496.22	287.969
1497.15	288.79
1498.08	290.028
1499.01	290.718
1499.94	291.879
1500.87	293.382
1501.8	293.927
1502.73	294.224
1503.66	294.859
1504.59	295.371
1505.52	295.983
1506.45	296.621
1507.38	297.777
1508.31	298.215
1509.23	300.215
1510.16	302.846
1511.09	306.413
1512.02	311.874
1512.94	317.394
1513.87	325.464
1514.8	334.205
1515.72	343.401
1516.65	352.768
1517.58	362.156
1518.5	371.816
1519.43	380.474
1520.35	388.856
1521.28	397.422
1522.2	408.396
1523.12	415.477
1524.05	419.184
1524.97	421.382
1525.9	421.147
1526.82	419.645
1527.74	415.1
1528.66	409.147
1529.59	402.037
1530.51	393.307
1531.43	386.951
1532.35	381.885
1533.27	374.28
1534.19	366.285
1535.11	358.383
1536.04	350.328
1536.96	342.357
1537.88	335.575
1538.8	327.89
1539.71	320.708
1540.63	314.513
1541.55	308.633
1542.47	304.575
1543.39	301.017
1544.31	297.562
1545.23	295.166
1546.14	294.107
1547.06	294.102
1547.98	294.615
1548.89	294.958
1549.81	295.814
1550.73	296.235
1551.64	296.358
1552.56	296.185
1553.47	297.804
1554.39	296.519
1555.31	294.484
1556.22	291.74
1557.13	288.544
1558.05	285.029
1558.96	281.452
1559.88	276.348
1560.79	272.668
1561.7	269.658
1562.62	267.081
1563.53	265.148
1564.44	262.889
1565.35	260.625
1566.27	258.534
1567.18	257.482
1568.09	256.861
1569	256.804
1569.91	255.676
1570.82	254.448
1571.73	253.254
1572.64	251.976
1573.55	251.122
1574.46	250.977
1575.37	250.784
1576.28	250.559
1577.19	250.575
1578.1	250.826
1579	251.218
1579.91	251.693
1580.82	252.369
1581.73	252.501
1582.63	252.398
1583.54	251.824
1584.45	251.313
1585.35	251.081
1586.26	250.785
1587.17	250.205
1588.07	249.955
1588.98	249.732
1589.88	249.765
1590.79	250.241
1591.69	250.509
1592.6	250.358
1593.5	249.924
1594.4	249.947
1595.31	250.198
1596.21	250.604
1597.11	251.367
1598.02	253.146
1598.92	255.097
1599.82	257.512
1600.72	258.927
1601.63	259.541
1602.53	259.892
1603.43	260.013
1604.33	260.015
1605.23	259.897
1606.13	259.726
1607.03	259.675
1607.93	259.619
1608.83	259.446
1609.73	259.323
1610.63	259.268
1611.53	259.391
1612.43	259.225
1613.32	258.068
1614.22	256.759
1615.12	255.648
1616.02	255.178
1616.92	254.754
1617.81	254.016
1618.71	253.107
1619.61	252.353
1620.5	251.838
1621.4	250.805
1622.29	249.902
1623.19	249.453
1624.08	249.286
1624.98	249.422
1625.87	249.426
1626.77	249.081
1627.66	248.8
1628.56	248.757
1629.45	248.497
1630.34	247.615
1631.24	246.801
1632.13	246.414
1632.84	245.724
1633.77	244.703
1634.7	243.639
1635.63	243.327
1636.56	242.629
1637.49	242.774
1638.42	242.844
1639.34	242.946
1640.27	243.411
1641.2	244.234
1642.13	244.515
1643.05	245.013
1643.98	245.403
1644.91	244.994
1645.83	244.878
1646.76	244.688
1647.68	243.985
1648.61	243.854
1649.54	240.943
1650.46	240.173
1651.39	239.632
1652.31	239.341
1653.23	239.265
1654.16	239.412
1655.08	239.066
1656.01	238.551
1656.93	237.609
1657.85	237.103
1658.78	236.485
1659.7	235.633
1660.62	234.961
1661.54	234.148
1662.47	233.068
1663.39	232.113
1664.31	230.596
1665.23	229.847
1666.15	229.603
1667.07	229.752
1667.99	230.357
1668.92	230.736
1669.84	231.47
1670.76	232.066
1671.68	232.879
1672.6	232.921
1673.52	233.44
1674.43	233.627
1675.35	233.797
1676.27	234.378
1677.19	233.667
1678.11	232.956
1679.03	232.627
1679.95	232.287
1680.86	231.691
1681.78	230.119
1682.7	228.778
1683.61	227.579
1684.53	226.036
1685.45	224.637
1686.36	223.334
1687.28	221.975
1688.2	221.343
1689.11	220.186
1690.03	220.151
1690.94	219.44
1691.86	218.9
1692.77	218.099
1693.69	217.681
1694.6	217.169
1695.52	215.792
1696.43	214.938
1697.34	213.227
1698.26	211.942
1699.17	210.665
1700.08	209.518
1700.99	209.207
1701.91	208.798
1702.82	208.08
1703.73	208.13
1704.64	208.551
1705.55	208.349
1706.47	208.36
1707.38	208.835
1708.29	209.254
1709.2	209.906
1710.11	210.003
1711.02	210.892
1711.93	212.263
1712.84	212.674
1713.75	211.755
1714.66	210.845
1715.57	210.092
1716.48	209.331
1717.39	208.872
1718.29	208.776
1719.2	208.629
1720.11	208.364
1721.02	208.065
1721.93	207.549
1722.83	206.875
1723.74	206.208
1724.65	205.558
1725.55	205.072
1726.46	204.789
1727.37	203.652
1728.27	201.783
1729.18	200.73
1730.08	199.848
1730.99	199.239
1731.89	199.231
1732.8	199.31
1733.7	199.805
1734.61	200.985
1735.51	201.665
1736.42	202.383
1737.32	202.435
1738.22	202.506
1739.13	202.569
1740.03	202.787
1740.93	202.695
1741.83	202.075
1742.74	202.028
1743.64	201.351
1744.54	200.383
1745.44	199.671
1746.34	199.174
1747.24	199.069
1748.15	198.484
1749.05	197.779
1749.95	197.578
1750.85	197.276
1751.75	196.279
1752.65	195.217
1753.55	193.972
1754.45	192.7
1755.35	191.508
1756.25	190.715
1757.14	190.392
1758.04	190.716
1758.94	190.43
1759.84	190.405
1760.74	190.332
1761.63	190.562
1762.53	191.012
1763.43	191.887
1764.33	192.841
1765.22	193.693
1766.12	194.364
1767.02	195.113
1767.91	194.051
1768.81	192.366
1769.7	190.66
1770.6	188.963
1771.49	187.394
1772.39	187.112
1773.28	186.848
1774.18	186.995
1775.07	186.334
1775.97	184.036
1776.86	182.251
1777.75	181.051
1778.65	180.13
1779.54	179.409
1780.43	179.714
1781.33	180.517
1782.22	180.892
1783.11	181.296
1784	182.052
1784.89	182.864
1785.79	183.46
1786.68	184.217
1787.57	184.873
1788.46	184.831
1789.35	184.522
1790.24	184.041
1791.13	183.045
1792.02	181.926
1792.91	180.783
1793.8	179.949
1794.69	180.087
1795.58	179.916
1796.47	180.837
1797.36	180.346
1798.25	179.036
1799.13	177.446
