Acq. time (s)=	15
Accumulations=	2
Range (cm-¹)=	600...1800
Windows=	2
Autofocus=	Off
AutoExposure=	On
Spike filter=	Multiple accum.
Delay time (s)=	1
Binning=	1
Readout mode=	Signal
DeNoise=	Standard
ICS correction=	Off
Dark correction=	Off
Inst. Process=	Off
Instrument=	XploRA
Detector=	Syncerity
Objective=	x20LWD
Grating=	1200 gr/mm
Filter=	25%
Laser (nm)=	785 
Slit (µm)=	100 
Hole (µm)=	300 
Laser pol=	None
Raman pol=	None
Output=	Camera
StageXY=	Marzhauser
StageZ=	
X (µm)=	485.8
Y (µm)=	2370.8
Project=	
Sample=	
Site=	
Title=	To2-T
Remark=	
Date=	14.10.2022 19:07
Acquired=	14.10.2022 19:07:52
600.787	452.325
601.956	471.895
603.126	481.76
604.294	485.218
605.463	481.761
606.631	477.169
607.8	473.53
608.967	473.755
610.135	470.129
611.302	470.013
612.468	465.425
613.635	476.836
614.802	496.311
615.968	520.932
617.133	508.893
618.299	501.869
619.464	499.345
620.629	508.52
621.793	520.9
622.958	526.369
624.121	527.937
625.285	529.241
626.448	529.453
627.612	529.034
628.774	527.9
629.937	525.729
631.099	522.622
632.261	519.497
633.423	518.181
634.584	519.481
635.745	520.433
636.906	524.143
638.066	526.097
639.227	527.832
640.386	529.618
641.546	531.594
642.705	533.8
643.864	536.152
645.023	538.935
646.181	541.639
647.339	544.246
648.497	546.654
649.655	548.315
650.812	549.192
651.969	549.425
653.125	549.828
654.282	551.836
655.438	554.388
656.593	556.973
657.75	559.731
658.905	562.347
660.059	564.945
661.214	567.075
662.368	569.139
663.522	571.121
664.676	573.081
665.83	575.048
666.983	577.611
668.136	580.337
669.288	582.899
670.441	585.22
671.592	587.083
672.744	588.268
673.895	588.734
675.046	589.132
676.197	589.67
677.348	591.088
678.498	593.098
679.648	595.622
680.798	598.357
681.947	600.948
683.096	602.291
684.245	604.966
685.394	607.606
686.542	609.932
687.69	611.504
688.837	612.465
689.984	612.932
691.132	612.768
692.278	612.115
693.425	610.902
694.571	609.273
695.717	606.983
696.863	604.525
698.008	603.434
699.152	603.218
700.298	603.593
701.442	604.867
702.586	606.352
703.73	607.918
704.873	608.814
706.017	609.581
707.16	610.152
708.302	610.105
709.445	609.353
710.586	607.45
711.729	605.284
712.87	602.89
714.012	600.643
715.152	598.516
716.293	596.784
717.433	595.755
718.573	595.311
719.713	594.308
720.853	593.024
721.991	592.838
723.131	592.982
724.269	593.404
725.408	593.826
726.545	593.908
727.683	594.041
728.821	594.006
729.958	593.68
731.095	593.463
732.231	593.479
733.368	594.133
734.503	595.944
735.639	598.463
736.775	601.445
737.91	605.125
739.045	608.533
740.179	611.385
741.313	613.523
742.447	614.899
743.581	614.618
744.714	613.723
745.847	612.45
746.98	610.808
748.113	608.867
749.245	607.193
750.377	605.34
751.509	603.184
752.64	600.895
753.771	598.407
754.902	595.734
756.033	592.973
757.163	590.128
758.293	586.998
759.423	583.673
760.551	580.279
761.681	576.801
762.81	573.316
763.938	569.704
765.066	566.553
766.194	563.469
767.321	560.669
768.449	558.146
769.576	556.131
770.703	555.128
771.83	554.407
772.955	553.857
774.081	552.942
775.207	551.545
776.332	550.095
777.457	548.614
778.582	547.11
779.707	545.595
780.831	544.112
781.954	542.726
783.078	541.493
784.201	540.355
785.324	539.179
786.447	538.077
787.569	537.055
788.691	535.598
789.813	533.165
790.935	531.842
792.056	530.404
793.177	528.146
794.297	524.096
795.418	519.422
796.539	516.32
797.658	512.908
798.777	513.019
799.897	514.482
801.016	519.125
802.134	522.919
803.253	520.389
804.371	510.684
805.489	505.628
806.606	503.793
807.723	506.682
808.84	508.482
809.957	510.134
811.073	508.794
812.19	509.147
813.305	509.13
814.421	508.221
815.536	507.636
816.651	507.338
817.766	507.492
818.88	507.576
819.994	507.427
821.108	506.759
822.221	502.885
823.335	501.655
824.448	500.703
825.56	499.922
826.673	499.019
827.784	498.169
828.897	497.374
830.008	496.608
831.119	495.798
832.23	495.002
833.341	494.216
834.451	493.443
835.561	492.684
836.671	491.942
837.78	491.317
838.89	490.733
839.998	490.286
841.108	490.03
842.216	489.787
843.324	489.557
844.431	489.282
845.539	489.42
846.646	489.576
847.753	488.854
848.859	487.425
849.966	486.675
851.071	486.054
852.178	485.464
853.283	484.776
854.388	483.959
855.494	482.963
856.598	481.762
857.703	479.895
858.806	477.761
859.91	475.483
861.014	474.014
862.116	472.524
863.22	470.851
864.322	468.065
865.425	465.212
866.527	462.556
867.628	460.876
868.73	458.872
869.831	457.185
870.932	455.915
872.032	455.229
873.133	455.284
874.233	455.808
875.333	456.453
876.432	457.146
877.532	456.948
878.631	456.382
879.729	455.304
880.828	454.48
881.926	453.564
883.023	452.88
884.121	452.14
885.218	450.795
886.315	449.064
887.412	447.449
888.508	446.025
889.604	445.213
890.699	444.412
891.795	443.823
892.89	443.953
893.985	444.423
895.08	445.121
896.174	445.73
897.268	445.829
898.362	445.357
899.456	444.744
900.549	444.092
901.642	443.529
902.734	444.208
903.827	445.474
904.919	445.334
906.011	444.925
907.102	445.095
908.193	445.857
909.284	446.591
910.375	446.394
911.465	446.93
912.555	448.829
913.645	451.29
914.734	453.913
915.824	455.473
916.913	455.744
918.001	454.369
919.09	452.016
920.177	448.025
921.266	445.282
922.353	442.273
923.44	438.988
924.527	435.317
925.614	431.562
926.7	427.73
927.786	423.998
928.873	420.638
929.958	416.942
931.043	413.624
932.128	410.775
933.213	409.101
934.297	408.529
935.381	408.292
936.465	408.027
937.549	407.493
938.632	407.114
939.715	406.856
940.798	406.877
941.881	407.103
942.962	407.516
944.044	408.269
945.125	408.232
946.207	407.67
947.288	406.578
948.368	405.257
949.449	403.616
950.529	401.385
951.61	399.212
952.689	397.27
953.769	396.569
954.847	396.197
955.926	395.946
957.004	395.519
958.082	394.513
959.16	393.946
960.238	393.423
961.316	392.679
962.392	391.512
963.469	389.988
964.546	388.288
965.622	386.663
966.698	384.663
967.774	382.843
968.849	381.364
969.924	380.584
970.998	380.966
972.073	382.224
973.148	384.327
974.221	385.82
975.295	387.6
976.369	389.959
977.441	392.599
978.514	395.384
979.587	397.825
980.659	398.859
981.731	397.87
982.802	397.856
983.874	397.664
984.945	397.127
986.016	396.368
987.087	394.79
988.157	393.081
989.227	391.343
990.296	389.883
991.366	389.316
992.435	389.252
993.504	390.45
994.573	392.522
995.641	393.912
996.709	395.832
997.777	397.585
998.844	398.864
999.911	399.62
1000.98	399.51
1002.05	398.968
1003.11	397.86
1004.18	396.29
1005.24	393.954
1006.31	391.237
1007.37	387.851
1008.44	384.208
1009.5	380.825
1010.57	377.412
1011.63	374.977
1012.7	372.907
1013.76	371.048
1014.82	369.143
1015.89	367.076
1016.95	364.806
1018.01	362.482
1019.07	360.319
1020.13	358.071
1021.2	355.916
1022.26	353.833
1023.32	351.86
1024.38	350.021
1025.44	348.274
1026.5	346.763
1027.56	345.354
1028.62	344.137
1029.68	343.156
1030.74	342.339
1031.8	341.794
1032.85	341.457
1033.91	341.521
1034.97	341.169
1036.03	340.818
1037.09	339.702
1038.14	338.92
1039.2	338.352
1040.26	338.324
1041.31	338.564
1042.37	338.858
1043.42	339.403
1044.48	340.009
1045.53	340.743
1046.59	341.288
1047.64	341.634
1048.7	341.893
1049.75	342.095
1050.81	342.473
1051.86	343.804
1052.91	345.14
1053.97	346.555
1055.02	346.089
1056.07	345.139
1057.12	343.934
1058.17	342.813
1059.23	341.525
1060.28	340.588
1061.33	339.888
1062.38	339.141
1063.43	338.506
1064.48	337.844
1065.53	337.169
1066.58	336.318
1067.63	335.204
1068.68	333.998
1069.72	332.771
1070.77	331.333
1071.82	330.115
1072.87	328.936
1073.92	327.968
1074.96	326.818
1076.01	325.49
1077.06	323.846
1078.1	322.271
1079.15	320.046
1080.2	317.808
1081.24	315.64
1082.29	313.626
1083.33	312.171
1084.38	311.124
1085.42	310.269
1086.47	309.81
1087.51	309.615
1088.55	309.514
1089.6	309.51
1090.64	309.602
1091.68	309.635
1092.73	309.422
1093.77	309.429
1094.81	308.783
1095.85	308.074
1096.89	307.357
1097.93	306.754
1098.98	306.27
1100.02	306.229
1101.06	306.502
1102.1	306.988
1103.14	307.732
1104.18	308.708
1105.21	309.742
1106.25	311.302
1107.29	313.205
1108.33	315.183
1109.37	316.392
1110.41	317.107
1111.44	316.564
1112.48	315.275
1113.52	313.516
1114.56	311.713
1115.59	309.716
1116.63	307.58
1117.66	305.75
1118.7	304.095
1119.73	302.862
1120.77	301.638
1121.8	300.295
1122.84	298.47
1123.87	296.628
1124.91	294.984
1125.94	293.547
1126.97	293.218
1128.01	293.472
1129.04	294.12
1130.07	294.968
1131.11	296.102
1132.14	296.857
1133.17	297.642
1134.2	298.646
1135.23	300.166
1136.26	302.497
1137.29	305.574
1138.32	309.426
1139.35	313.513
1140.38	317.387
1141.41	319.313
1142.44	320.113
1143.47	319.401
1144.5	316.788
1145.53	312.697
1146.56	320.006
1147.58	325.587
1148.61	326.435
1149.64	328.774
1150.67	334.305
1151.69	338.627
1152.72	343.06
1153.75	346.757
1154.77	347.553
1155.8	349.147
1156.82	345.062
1157.85	343.37
1158.87	340.276
1159.9	339.211
1160.92	334.251
1161.95	327.837
1162.97	320.21
1163.99	310.145
1165.02	303.323
1166.04	297.404
1167.06	292.756
1168.08	289.034
1169.11	287.028
1170.13	286.654
1171.15	289.664
1172.17	290.654
1173.19	291.461
1174.21	292.154
1175.23	293.629
1176.25	295.475
1177.27	297.162
1178.29	298.739
1179.31	299.283
1180.33	301.461
1181.35	304.048
1182.37	306.385
1183.39	307.978
1184.4	309.124
1185.42	309.899
1186.44	310.591
1187.46	310.915
1188.47	310.8
1189.49	309.433
1190.51	306.325
1191.52	300.445
1192.54	295.078
1193.55	290.443
1194.57	285.463
1195.58	281.966
1196.6	279.184
1197.61	276.787
1198.63	274.029
1199.64	271.399
1200.65	269.372
1201.67	268.228
1202.68	268.424
1203.69	269.378
1204.7	271.81
1205.72	272.979
1206.73	273.575
1207.74	273.834
1208.75	274.083
1209.76	274.208
1210.77	274.466
1211.78	274.846
1212.79	275.252
1213.8	275.724
1214.81	276.166
1215.82	275.384
1216.83	275.58
1217.84	277.552
1218.85	279.749
1219.86	281.411
1220.87	282.881
1221.87	283.802
1222.88	284.223
1223.89	284.033
1224.9	283.152
1225.9	281.479
1226.91	278.919
1227.92	275.728
1228.92	271.1
1229.93	267.221
1230.93	264.679
1231.94	262.361
1232.94	260.102
1233.95	257.899
1234.95	255.965
1235.95	254.623
1236.96	253.379
1237.96	252.299
1238.96	251.282
1239.97	250.337
1240.97	249.469
1241.97	248.608
1242.97	247.802
1243.98	247.064
1244.98	246.358
1245.98	245.636
1246.98	244.997
1247.98	244.393
1248.98	243.815
1249.98	243.262
1250.98	242.734
1251.98	242.246
1252.98	241.792
1253.98	241.375
1254.98	240.963
1255.98	240.553
1256.97	240.176
1257.97	239.78
1258.97	239.439
1259.97	239.065
1260.97	238.774
1261.96	238.44
1262.96	238.127
1263.95	237.322
1264.95	237.758
1265.95	238.896
1266.94	239.866
1267.94	240.439
1268.93	240.746
1269.93	240.91
1270.92	240.883
1271.92	240.705
1272.91	240.179
1273.9	239.393
1274.9	238.408
1275.89	237.323
1276.88	236.4
1277.87	235.441
1278.87	234.431
1279.86	233.575
1280.85	233.034
1281.84	232.863
1282.83	233.098
1283.82	234.129
1284.81	235.061
1285.81	235.996
1286.8	236.15
1287.79	235.948
1288.77	235.304
1289.76	234.384
1290.75	233.163
1291.74	231.693
1292.73	230.008
1293.72	228.282
1294.71	226.743
1295.69	225.018
1296.68	222.919
1297.67	221.084
1298.65	219.894
1299.64	219.623
1300.63	220.07
1301.61	221.126
1302.6	222.826
1303.58	224.608
1304.57	226.18
1305.55	226.887
1306.54	227.072
1307.52	226.493
1308.51	225.117
1309.49	223.468
1310.48	222.235
1311.46	221.378
1312.44	220.149
1313.42	219.286
1314.41	218.876
1315.39	218.84
1316.37	219.672
1317.35	221.389
1318.33	223.657
1319.32	226.383
1320.3	229.615
1321.28	233.072
1322.26	237.128
1323.24	240.915
1324.22	243.561
1325.2	245.081
1326.18	245.587
1327.15	245.013
1328.13	243.303
1329.11	240.629
1330.09	237.089
1331.07	233.077
1332.05	228.592
1333.02	224.1
1334	219.941
1334.98	216.301
1335.95	214.197
1336.93	212.529
1337.91	211.662
1338.88	211.205
1339.86	210.543
1340.83	210.348
1341.81	210.184
1342.78	210.071
1343.76	209.97
1344.73	209.728
1345.7	209.392
1346.68	209.036
1347.65	208.596
1348.62	208.105
1349.6	207.462
1350.57	206.807
1351.54	205.976
1352.51	204.989
1353.49	203.851
1354.46	202.979
1355.43	202.158
1356.4	201.473
1357.37	200.177
1358.34	198.861
1359.31	197.482
1360.28	196.088
1361.25	194.573
1362.22	193.085
1363.19	191.79
1364.16	190.637
1365.12	189.627
1366.09	188.875
1367.06	188.371
1368.03	188.061
1369	188.008
1369.96	188.235
1370.93	189.057
1371.9	190.284
1372.86	191.607
1373.83	192.99
1374.79	194.077
1375.76	193.87
1376.73	193.506
1377.69	192.751
1378.66	191.876
1379.62	190.93
1380.58	190.145
1381.55	189.302
1382.51	188.607
1383.48	187.97
1384.44	187.424
1385.4	186.951
1386.36	186.478
1387.33	185.971
1388.29	185.54
1389.25	185.278
1390.21	185.058
1391.17	184.835
1392.13	184.542
1393.09	183.533
1394.06	181.579
1395.01	180.202
1395.97	179.618
1396.93	179.582
1397.89	179.909
1398.85	180.386
1399.81	180.677
1400.77	180.207
1401.73	178.791
1402.69	177.148
1403.64	175.493
1404.6	173.883
1405.56	172.437
1406.52	171.085
1407.47	169.884
1408.43	168.986
1409.39	168.296
1410.34	167.834
1411.3	167.644
1412.25	167.678
1413.21	168.052
1414.16	168.69
1415.12	169.704
1416.07	171.14
1417.03	172.853
1417.98	175.501
1418.93	176.645
1419.89	178.746
1420.84	178.823
1421.79	178.294
1422.74	176.983
1423.7	175.706
1424.65	174.575
1425.6	173.638
1426.55	173.306
1427.5	173.402
1428.45	174.089
1429.4	175.268
1430.35	178.196
1431.3	179.541
1432.25	180.607
1433.2	181.348
1434.15	181.44
1435.1	181.132
1436.05	180.464
1437	179.604
1437.95	178.712
1438.89	177.504
1439.84	175.848
1440.79	174.241
1441.74	172.838
1442.68	171.669
1443.63	171.248
1444.58	170.824
1445.52	170.902
1446.47	171.067
1447.41	171.277
1448.36	171.456
1449.3	171.742
1450.25	171.76
1451.19	171.544
1452.14	171.248
1453.08	170.754
1454.03	170.312
1454.97	169.817
1455.91	169.278
1456.85	168.681
1457.8	168.033
1458.74	167.341
1459.68	166.617
1460.62	165.883
1461.57	165.221
1462.51	164.39
1463.45	163.504
1464.39	162.6
1465.33	161.558
1466.27	160.844
1467.21	160.239
1468.15	159.656
1469.09	159.371
1470.03	159.283
1470.97	159.033
1471.9	158.811
1472.84	158.593
1473.78	158.394
1474.72	158.2
1475.66	157.878
1476.59	157.461
1477.53	157.078
1478.47	156.802
1479.4	156.39
1480.34	156.001
1481.28	155.727
1482.21	155.592
1483.15	155.803
1484.08	156.749
1485.02	157.93
1485.95	159.005
1486.89	160.013
1487.82	160.814
1488.76	161.411
1489.69	161.823
1490.62	161.882
1491.56	161.877
1492.49	161.47
1493.42	160.56
1494.35	159.434
1495.29	158.136
1496.22	156.852
1497.15	155.544
1498.08	154.539
1499.01	153.577
1499.94	152.971
1500.87	152.409
1501.8	152.183
1502.73	151.907
1503.66	151.822
1504.59	151.984
1505.52	152.397
1506.45	153.159
1507.38	154.209
1508.31	155.578
1509.23	157.323
1510.16	159.633
1511.09	162.207
1512.02	165.11
1512.94	168.36
1513.87	171.876
1514.8	175.715
1515.72	179.72
1516.65	184.299
1517.58	189.223
1518.5	194.4
1519.43	199.71
1520.35	204.906
1521.28	209.141
1522.2	213.687
1523.12	217.708
1524.05	221.054
1524.97	223.604
1525.9	225.189
1526.82	225.513
1527.74	224.966
1528.66	223.572
1529.59	221.409
1530.51	218.587
1531.43	215.34
1532.35	211.76
1533.27	207.733
1534.19	203.282
1535.11	199.025
1536.04	195.128
1536.96	190.884
1537.88	186.46
1538.8	182.199
1539.71	178.672
1540.63	175.4
1541.55	170.61
1542.47	164.967
1543.39	161.051
1544.31	157.726
1545.23	155.151
1546.14	153.256
1547.06	152.25
1547.98	152.678
1548.89	153.011
1549.81	153.167
1550.73	153.138
1551.64	152.751
1552.56	152.153
1553.47	151.183
1554.39	150.039
1555.31	148.448
1556.22	146.641
1557.13	144.701
1558.05	142.629
1558.96	140.428
1559.88	137.855
1560.79	135.298
1561.7	132.969
1562.62	131.304
1563.53	130.4
1564.44	130.823
1565.35	129.72
1566.27	128.746
1567.18	125.692
1568.09	125.215
1569	125.988
1569.91	125.565
1570.82	124.666
1571.73	124.045
1572.64	124.152
1573.55	124.472
1574.46	124.576
1575.37	124.492
1576.28	124.435
1577.19	123.996
1578.1	123.401
1579	122.762
1579.91	122.164
1580.82	121.637
1581.73	121.341
1582.63	121.127
1583.54	121.104
1584.45	121.161
1585.35	121.308
1586.26	121.409
1587.17	121.561
1588.07	121.703
1588.98	121.907
1589.88	122.248
1590.79	122.682
1591.69	122.994
1592.6	123.18
1593.5	123.215
1594.4	123.269
1595.31	123.081
1596.21	122.97
1597.11	123.087
1598.02	123.567
1598.92	123.923
1599.82	124.409
1600.72	125.033
1601.63	125.729
1602.53	126.455
1603.43	127.172
1604.33	127.777
1605.23	128.022
1606.13	127.713
1607.03	127.281
1607.93	126.773
1608.83	126.16
1609.73	125.587
1610.63	124.921
1611.53	124.358
1612.43	123.613
1613.32	122.889
1614.22	122.316
1615.12	121.87
1616.02	121.601
1616.92	121.592
1617.81	120.978
1618.71	120.807
1619.61	120.663
1620.5	120.347
1621.4	120.378
1622.29	120.481
1623.19	120.62
1624.08	121.077
1624.98	121.169
1625.87	120.589
1626.77	119.863
1627.66	119.338
1628.56	119.324
1629.45	119.118
1630.34	117.561
1631.24	116.144
1632.13	115.087
1632.84	114.406
1633.77	113.641
1634.7	113.116
1635.63	112.573
1636.56	112.951
1637.49	113.435
1638.42	113.974
1639.34	114.498
1640.27	115.028
1641.2	115.106
1642.13	115.101
1643.05	115.053
1643.98	114.834
1644.91	114.648
1645.83	114.229
1646.76	113.767
1647.68	112.952
1648.61	112.105
1649.54	111.248
1650.46	110.42
1651.39	109.617
1652.31	108.862
1653.23	108.369
1654.16	108.062
1655.08	108.206
1656.01	108.275
1656.93	108.571
1657.85	109.251
1658.78	110.035
1659.7	110.833
1660.62	110.793
1661.54	110.285
1662.47	110.117
1663.39	110.721
1664.31	111.909
1665.23	112.839
1666.15	114.04
1667.07	114.922
1667.99	115.629
1668.92	115.507
1669.84	114.951
1670.76	114.32
1671.68	114.08
1672.6	113.339
1673.52	112.486
1674.43	112.195
1675.35	111.872
1676.27	111.588
1677.19	111.565
1678.11	111.571
1679.03	109.77
1679.95	108.413
1680.86	106.278
1681.78	105.936
1682.7	106.225
1683.61	107.387
1684.53	108.939
1685.45	111.704
1686.36	112.784
1687.28	112.83
1688.2	112.312
1689.11	111.535
1690.03	110.935
1690.94	108.217
1691.86	107.545
1692.77	107.162
1693.69	106.858
1694.6	106.719
1695.52	106.583
1696.43	108.036
1697.34	107.367
1698.26	106.552
1699.17	105.679
1700.08	104.718
1700.99	104.266
1701.91	103.86
1702.82	103.5
1703.73	103.161
1704.64	102.843
1705.55	101.995
1706.47	101.516
1707.38	101.014
1708.29	100.895
1709.2	100.713
1710.11	100.412
1711.02	100.148
1711.93	100.376
1712.84	100.486
1713.75	100.423
1714.66	100.242
1715.57	99.9983
1716.48	99.7794
1717.39	99.4945
1718.29	99.3108
1719.2	99.1129
1720.11	98.9755
1721.02	98.8254
1721.93	98.6839
1722.83	98.6074
1723.74	98.5008
1724.65	98.3571
1725.55	98.3313
1726.46	97.9513
1727.37	97.023
1728.27	96.1195
1729.18	95.559
1730.08	94.7005
1730.99	93.7006
1731.89	93.241
1732.8	92.5183
1733.7	91.8024
1734.61	92.1645
1735.51	93.5069
1736.42	94.4864
1737.32	94.9218
1738.22	95.1316
1739.13	95.4449
1740.03	95.1303
1740.93	94.296
1741.83	93.4612
1742.74	92.6216
1743.64	91.7707
1744.54	90.922
1745.44	90.0725
1746.34	89.212
1747.24	88.5587
1748.15	88.9488
1749.05	90.0857
1749.95	91.1892
1750.85	92.4636
1751.75	93.4869
1752.65	93.7061
1753.55	94.0986
1754.45	93.947
1755.35	94.1977
1756.25	94.9682
1757.14	95.3304
1758.04	95.9936
1758.94	96.9262
1759.84	97.6435
1760.74	98.0659
1761.63	97.1634
1762.53	95.515
1763.43	93.8036
1764.33	92.0943
1765.22	91.0821
1766.12	90.2923
1767.02	89.8144
1767.91	89.6515
1768.81	89.8815
1769.7	90.2753
1770.6	90.7222
1771.49	90.8486
1772.39	90.7217
1773.28	90.47
1774.18	90.1146
1775.07	89.904
1775.97	89.7181
1776.86	89.5647
1777.75	89.3301
1778.65	88.7056
1779.54	88.6229
1780.43	88.6533
1781.33	88.4604
1782.22	88.1725
1783.11	87.9967
1784	87.817
1784.89	87.7437
1785.79	87.5641
1786.68	87.302
1787.57	87.0585
1788.46	86.5759
1789.35	85.9942
1790.24	85.4698
1791.13	84.6037
1792.02	83.5168
1792.91	82.4356
1793.8	81.1449
1794.69	80.8119
1795.58	80.7985
1796.47	80.6012
1797.36	80.2661
1798.25	78.9268
1799.13	77.1743
