Acq. time (s)=	15
Accumulations=	2
Range (cm-¹)=	600...1800
Windows=	2
Autofocus=	Off
AutoExposure=	Off
Spike filter=	Multiple accum.
Delay time (s)=	1
Binning=	1
Readout mode=	Signal
DeNoise=	Standard
ICS correction=	Off
Dark correction=	Off
Inst. Process=	Off
Instrument=	XploRA
Detector=	Syncerity
Objective=	x20LWD
Grating=	1200 gr/mm
Filter=	25%
Laser (nm)=	785 
Slit (µm)=	100 
Hole (µm)=	300 
Laser pol=	None
Raman pol=	None
Output=	Camera
StageXY=	Marzhauser
StageZ=	
X (µm)=	4975.6
Y (µm)=	2205.8
Project=	
Sample=	
Site=	
Title=	To2
Remark=	
Date=	29.10.2022 05:13
Acquired=	29.10.2022 05:13:54
600.839	407.647
602.009	415.703
603.178	424.041
604.347	429.516
605.516	434.354
606.684	438.959
607.852	443.186
609.02	446.932
610.187	450.5
611.355	453.618
612.521	456.434
613.688	459.004
614.854	461.307
616.02	463.428
617.185	465.328
618.351	467.171
619.516	468.885
620.681	470.631
621.846	472.54
623.009	474.621
624.174	476.587
625.337	478.742
626.501	481.052
627.664	483.405
628.826	486.152
629.988	489.049
631.151	491.598
632.313	493.851
633.474	495.892
634.635	497.687
635.797	499.205
636.958	500.529
638.117	501.422
639.278	502.021
640.437	502.221
641.597	502.241
642.756	502.039
643.915	501.714
645.074	501.293
646.233	500.97
647.391	501.438
648.548	502.455
649.706	503.751
650.863	505.351
652.02	507.212
653.176	508.832
654.333	510.08
655.489	510.099
656.645	509.615
657.8	508.861
658.955	508.391
660.11	508.094
661.264	508.016
662.419	508.253
663.573	508.896
664.727	509.854
665.88	510.842
667.033	512.074
668.186	513.921
669.338	516.579
670.491	520.263
671.643	523.922
672.794	526.779
673.945	529.355
675.096	531.709
676.247	533.561
677.398	534.781
678.548	534.187
679.698	533.098
680.847	532.326
681.997	531.542
683.146	530.582
684.294	529.456
685.443	527.424
686.591	526.113
687.739	524.87
688.887	524.048
690.034	523.685
691.181	523.775
692.328	524.165
693.474	524.822
694.62	525.449
695.766	525.719
696.911	526.023
698.057	527.428
699.202	528.713
700.346	528.704
701.49	528.042
702.635	526.811
703.779	525.457
704.922	523.265
706.065	520.703
707.208	517.938
708.351	515.384
709.493	512.803
710.635	510.676
711.776	508.307
712.918	506.589
714.059	506.047
715.2	506.53
716.341	507.54
717.481	508.793
718.621	509.157
719.761	509.143
720.9	511.35
722.04	512.813
723.178	514.087
724.317	514.865
725.455	515.323
726.594	515.224
727.731	514.376
728.868	513.31
730.005	512.525
731.142	512.117
732.279	511.355
733.415	510.796
734.551	510.525
735.686	510.971
736.822	511.799
737.957	513.03
739.092	514.392
740.226	514.426
741.36	514.32
742.495	513.822
743.628	514.134
744.762	514.456
745.895	514.834
747.027	513.797
748.16	512.345
749.292	510.733
750.423	508.931
751.555	507.02
752.686	505.174
753.817	503.256
754.949	501.265
756.079	499.324
757.209	497.308
758.339	495.333
759.469	493.27
760.597	491.107
761.727	488.851
762.856	486.79
763.984	484.846
765.112	482.393
766.24	479.956
767.367	477.636
768.494	475.552
769.622	473.876
770.749	473.086
771.874	472.468
773.001	471.933
774.127	471.39
775.253	470.414
776.377	469.223
777.503	467.927
778.627	466.616
779.751	465.227
780.876	464.021
782	463.32
783.123	462.67
784.246	461.871
785.37	460.96
786.492	459.629
787.614	458.159
788.737	456.451
789.858	454.416
790.979	452.209
792.101	449.875
793.222	447.576
794.342	445.132
795.463	442.817
796.583	440.74
797.702	439.171
798.822	437.765
799.942	436.849
801.06	436.614
802.179	436.853
803.297	437.534
804.415	438.326
805.533	439.23
806.651	439.784
807.768	440.606
808.885	441.343
810.001	442.09
811.118	442.615
812.233	442.913
813.349	442.773
814.464	441.892
815.58	440.463
816.695	437.803
817.809	435.049
818.924	432.643
820.038	430.421
821.152	428.377
822.265	426.615
823.378	425.123
824.491	423.937
825.604	423.091
826.716	422.54
827.828	422.337
828.94	422.348
830.051	422.934
831.162	424.133
832.273	425.432
833.383	426.725
834.494	427.925
835.604	428.532
836.714	429.063
837.823	429.471
838.932	429.656
840.041	429.687
841.15	429.562
842.258	429.262
843.366	428.82
844.474	428.252
845.581	427.515
846.688	426.65
847.795	425.617
848.901	424.458
850.008	423.154
851.115	421.664
852.22	420.031
853.325	418.203
854.43	416.232
855.536	414.138
856.64	411.867
857.745	409.466
858.848	406.994
859.952	404.306
861.055	401.572
862.158	398.867
863.261	396.581
864.364	395.039
865.466	394.355
866.568	393.977
867.67	393.81
868.771	393.832
869.873	393.985
870.973	393.867
872.074	393.547
873.174	393.284
874.274	393.099
875.374	392.851
876.473	392.596
877.572	391.943
878.671	390.725
879.77	389.258
880.868	387.959
881.966	386.776
883.064	386.111
884.161	385.509
885.258	385.483
886.356	385.84
887.452	386.867
888.548	387.977
889.645	388.958
890.74	389.163
891.836	388.936
892.931	388.58
894.025	388.051
895.12	387.345
896.214	386.669
897.308	385.691
898.402	384.725
899.495	383.47
900.588	383.731
901.681	385.645
902.774	387.035
903.866	388.086
904.958	388.901
906.05	389.486
907.142	389.749
908.233	389.807
909.324	389.637
910.414	389.285
911.504	388.744
912.594	387.992
913.684	387.095
914.774	386.077
915.863	384.805
916.952	383.265
918.041	381.589
919.129	379.686
920.217	378.089
921.305	376.441
922.392	375.756
923.48	374.627
924.567	372.638
925.653	370.351
926.74	368.16
927.825	366.14
928.911	364.254
929.997	362.499
931.082	361.254
932.166	360.184
933.252	359.313
934.336	358.541
935.42	358.002
936.504	357.664
937.587	357.437
938.671	357.311
939.753	357.281
940.836	357.246
941.919	357.048
943	356.447
944.082	355.46
945.163	354.65
946.245	354.372
947.326	354.202
948.406	354.255
949.487	353.804
950.567	352.958
951.647	351.242
952.727	349.312
953.805	347.253
954.885	345.217
955.964	343.138
957.042	341.591
958.12	340.609
959.198	339.412
960.276	338.252
961.352	337.3
962.43	336.52
963.507	335.887
964.583	336.024
965.659	336.364
966.735	336.824
967.81	337.506
968.885	338.14
969.961	338.766
971.036	339.265
972.11	339.673
973.184	339.989
974.258	340.315
975.332	340.577
976.405	340.565
977.478	340.39
978.551	340.429
979.624	340.574
980.696	341.349
981.767	343.005
982.839	344.22
983.911	345.389
984.982	346.1
986.052	346.795
987.123	347.124
988.193	347.294
989.263	347.332
990.333	347.3
991.403	347.065
992.471	346.868
993.54	346.607
994.608	346.045
995.677	345.308
996.745	344.256
997.812	342.39
998.88	339.622
999.947	338.086
1001.01	337.657
1002.08	337.249
1003.15	335.348
1004.21	333.176
1005.28	330.985
1006.34	328.952
1007.41	326.842
1008.47	325.428
1009.54	324.205
1010.6	323.018
1011.67	321.855
1012.73	320.716
1013.79	319.522
1014.86	318.249
1015.92	316.312
1016.98	314.013
1018.05	312.529
1019.11	311.217
1020.17	310.592
1021.23	310.036
1022.29	309.388
1023.35	308.806
1024.41	308.069
1025.47	307.313
1026.53	306.674
1027.59	306.092
1028.65	305.138
1029.71	304.271
1030.77	303.32
1031.83	302.473
1032.89	301.797
1033.95	301.299
1035	301.098
1036.06	301.207
1037.12	301.575
1038.18	302.003
1039.23	303.279
1040.29	304.572
1041.35	305.976
1042.4	307.224
1043.46	307.928
1044.51	307.779
1045.57	307.36
1046.62	306.807
1047.68	305.43
1048.73	303.823
1049.79	301.998
1050.84	300.007
1051.89	298.183
1052.95	296.555
1054	295.671
1055.05	294.836
1056.1	293.584
1057.16	292.47
1058.21	291.725
1059.26	292.326
1060.31	293.198
1061.36	294.813
1062.41	293.98
1063.46	291.868
1064.51	290.075
1065.56	291.041
1066.61	294.04
1067.66	299.953
1068.71	300.842
1069.76	296.414
1070.81	295.231
1071.85	294.035
1072.9	292.492
1073.95	291.088
1075	290.012
1076.04	289.342
1077.09	289.409
1078.14	289.56
1079.18	289.287
1080.23	286.984
1081.27	284.819
1082.32	282.632
1083.36	281.053
1084.41	279.926
1085.45	279.893
1086.5	280.231
1087.54	280.674
1088.59	280.689
1089.63	280.727
1090.67	280.43
1091.71	280.064
1092.76	278.669
1093.8	276.945
1094.84	275.528
1095.88	275.067
1096.92	274.875
1097.97	275.005
1099.01	275.433
1100.05	276.537
1101.09	277.465
1102.13	277.801
1103.17	277.055
1104.21	276.042
1105.25	274.589
1106.28	273.419
1107.32	272.706
1108.36	272.791
1109.4	274.293
1110.44	277.676
1111.47	278.781
1112.51	277.473
1113.55	275.735
1114.59	274.164
1115.62	272.588
1116.66	270.845
1117.69	269.126
1118.73	267.507
1119.77	266.088
1120.8	265.055
1121.84	264.23
1122.87	263.835
1123.9	264.188
1124.94	264.973
1125.97	266.076
1127	267.105
1128.04	267.887
1129.07	268.09
1130.1	268.495
1131.13	268.893
1132.17	269.412
1133.2	269.884
1134.23	270.242
1135.26	270.594
1136.29	270.978
1137.32	271.526
1138.35	272.259
1139.38	273.105
1140.41	274.27
1141.44	275.56
1142.47	276.92
1143.5	278.386
1144.53	279.966
1145.56	281.661
1146.59	283.416
1147.61	285.565
1148.64	287.957
1149.67	290.549
1150.7	293.257
1151.72	295.899
1152.75	297.207
1153.77	298.845
1154.8	297.101
1155.83	294.011
1156.85	289.172
1157.88	283.138
1158.9	276.594
1159.93	268.404
1160.95	263.12
1161.97	259.11
1163	255.73
1164.02	253.048
1165.04	251.429
1166.07	251.925
1167.09	252.477
1168.11	252.768
1169.13	253.1
1170.16	253.728
1171.18	254.373
1172.2	255.322
1173.22	256.285
1174.24	257.416
1175.26	258.411
1176.28	259.56
1177.3	260.644
1178.32	261.57
1179.34	262.4
1180.36	262.803
1181.38	263.169
1182.4	263.368
1183.41	263.361
1184.43	263.129
1185.45	262.525
1186.47	261.743
1187.48	260.81
1188.5	259.723
1189.52	258.516
1190.53	257.164
1191.55	255.706
1192.56	254.188
1193.58	252.549
1194.59	250.847
1195.61	249.121
1196.62	247.661
1197.64	246.129
1198.65	244.69
1199.67	243.404
1200.68	242.192
1201.69	242.074
1202.71	242.223
1203.72	242.495
1204.73	242.865
1205.74	243.132
1206.76	243.375
1207.77	243.322
1208.78	243.222
1209.79	243.2
1210.8	243.059
1211.81	242.945
1212.82	242.796
1213.83	242.678
1214.84	242.556
1215.85	242.444
1216.86	242.386
1217.87	242.337
1218.88	242.407
1219.88	242.561
1220.89	242.901
1221.9	243.586
1222.91	244.362
1223.92	244.936
1224.92	245.306
1225.93	245.321
1226.93	243.081
1227.94	240.759
1228.95	238.411
1229.95	236.093
1230.96	234.247
1231.96	232.522
1232.97	231.002
1233.97	229.631
1234.98	228.772
1235.98	228.243
1236.98	227.859
1237.99	227.481
1238.99	226.991
1239.99	226.46
1241	225.138
1242	223.706
1243	222.083
1244	220.016
1245	217.608
1246	215.256
1247.01	212.996
1248.01	211.063
1249.01	209.895
1250.01	209.164
1251.01	209.059
1252.01	209.392
1253	210.3
1254	211.683
1255	213.31
1256	214.983
1257	216.426
1258	217.482
1258.99	218.272
1259.99	218.735
1260.99	218.871
1261.99	218.831
1262.98	218.416
1263.98	217.782
1264.98	216.161
1265.97	214.296
1266.97	212.332
1267.96	210.46
1268.96	208.617
1269.95	207.63
1270.95	206.944
1271.94	206.658
1272.93	206.636
1273.93	206.866
1274.92	207.369
1275.91	208.097
1276.91	209.103
1277.9	210.123
1278.89	211.111
1279.88	211.724
1280.87	212.231
1281.87	212.441
1282.86	212.074
1283.85	210.912
1284.84	209.546
1285.83	208.072
1286.82	206.685
1287.81	205.293
1288.8	204.419
1289.79	203.609
1290.78	203.007
1291.76	202.513
1292.75	202.239
1293.74	202.13
1294.73	202.164
1295.72	202.284
1296.7	202.485
1297.69	202.716
1298.68	202.969
1299.66	203.05
1300.65	202.925
1301.64	202.847
1302.62	203.045
1303.61	203.284
1304.59	203.376
1305.58	203.348
1306.56	203.096
1307.55	202.438
1308.53	201.426
1309.51	199.872
1310.5	198.286
1311.48	196.816
1312.46	195.616
1313.45	194.733
1314.43	194.491
1315.41	194.731
1316.39	195.564
1317.38	196.863
1318.36	198.551
1319.34	200.562
1320.32	203.034
1321.3	205.485
1322.28	207.516
1323.26	209.282
1324.24	210.528
1325.22	211.117
1326.2	211.124
1327.18	210.624
1328.16	209.589
1329.13	208.111
1330.11	206.317
1331.09	204.334
1332.07	202.204
1333.04	200.199
1334.02	198.17
1335	196.227
1335.97	194.355
1336.95	192.348
1337.93	190.24
1338.9	188.265
1339.88	186.456
1340.85	184.84
1341.83	183.345
1342.8	182.47
1343.78	182.549
1344.75	182.904
1345.72	183.532
1346.7	184.51
1347.67	185.527
1348.65	186.616
1349.62	187.306
1350.59	187.853
1351.56	188.274
1352.53	188.201
1353.51	187.725
1354.48	186.739
1355.45	184.891
1356.42	182.22
1357.39	180.787
1358.36	179.533
1359.33	178.439
1360.3	177.552
1361.27	176.45
1362.24	175.314
1363.21	174.039
1364.18	173.899
1365.14	174.518
1366.11	175.052
1367.08	175.349
1368.05	175.66
1369.02	175.956
1369.98	176.221
1370.95	176.448
1371.92	176.662
1372.88	176.831
1373.85	176.985
1374.81	177.018
1375.78	177.018
1376.74	176.775
1377.71	176.911
1378.68	177.104
1379.64	177.285
1380.6	177.716
1381.57	178.118
1382.53	178.084
1383.49	178.045
1384.46	177.567
1385.42	177.021
1386.38	176.465
1387.34	175.874
1388.31	175.256
1389.27	174.659
1390.23	174.032
1391.19	173.51
1392.15	173.316
1393.11	172.943
1394.07	172.589
1395.03	172.258
1395.99	172.075
1396.95	172.018
1397.91	172.048
1398.87	172.026
1399.83	171.963
1400.79	171.742
1401.75	171.271
1402.7	168.958
1403.66	166.696
1404.62	166.73
1405.58	166.776
1406.53	166.79
1407.49	166.656
1408.45	166.479
1409.4	166.295
1410.36	166.054
1411.31	165.723
1412.27	165.286
1413.23	164.897
1414.18	164.248
1415.13	163.583
1416.09	162.951
1417.04	162.346
1418	161.805
1418.95	161.317
1419.9	160.933
1420.86	160.643
1421.81	160.418
1422.76	160.534
1423.71	160.834
1424.67	161.257
1425.62	162.011
1426.57	162.802
1427.52	163.831
1428.47	164.903
1429.42	166.05
1430.37	167.147
1431.32	168.228
1432.27	168.883
1433.22	169.397
1434.17	169.522
1435.12	169.416
1436.07	169.108
1437.02	168.461
1437.96	167.323
1438.91	165.526
1439.86	163.533
1440.81	161.435
1441.75	159.469
1442.7	158.316
1443.65	157.419
1444.59	157.087
1445.54	156.995
1446.49	157.071
1447.43	157.162
1448.38	157.267
1449.32	157.131
1450.27	156.98
1451.21	156.482
1452.15	156.524
1453.1	156.551
1454.04	156.597
1454.98	156.604
1455.93	155.782
1456.87	154.804
1457.81	154.049
1458.76	153.114
1459.7	152.846
1460.64	152.731
1461.58	152.044
1462.52	151.025
1463.46	149.845
1464.4	148.536
1465.34	147.236
1466.28	146.052
1467.22	144.917
1468.16	143.857
1469.1	142.932
1470.04	142.136
1470.98	141.556
1471.92	141.171
1472.86	141.083
1473.8	141.174
1474.73	141.385
1475.67	141.843
1476.61	142.37
1477.55	143.47
1478.48	144.673
1479.42	145.927
1480.36	147.162
1481.29	148.352
1482.23	149.144
1483.16	149.841
1484.1	150.497
1485.03	150.947
1485.97	151.259
1486.9	151.423
1487.84	151.478
1488.77	151.425
1489.7	151.268
1490.64	151.008
1491.57	150.655
1492.5	150.154
1493.44	149.351
1494.37	148.263
1495.3	147.21
1496.23	146.155
1497.16	145.144
1498.09	144.201
1499.02	143.422
1499.96	143.212
1500.89	143.041
1501.82	143.056
1502.75	143.226
1503.68	143.61
1504.61	144.126
1505.53	144.846
1506.46	145.768
1507.39	146.998
1508.32	148.548
1509.25	150.213
1510.18	152.165
1511.1	154.329
1512.03	156.617
1512.96	159.084
1513.88	161.667
1514.81	164.343
1515.74	166.898
1516.66	169.606
1517.59	172.422
1518.51	175.031
1519.44	177.466
1520.36	179.555
1521.29	181.216
1522.21	182.186
1523.14	182.863
1524.06	183.144
1524.98	183.099
1525.91	182.651
1526.83	181.854
1527.75	180.654
1528.68	179.094
1529.6	177.1
1530.52	174.952
1531.44	172.107
1532.36	169.101
1533.29	166.033
1534.21	162.898
1535.13	160.629
1536.05	158.245
1536.97	156.064
1537.89	153.732
1538.81	151.307
1539.73	149.171
1540.65	147.306
1541.56	145.619
1542.48	144.146
1543.4	143.069
1544.32	142.59
1545.24	142.197
1546.16	141.933
1547.07	141.745
1547.99	141.419
1548.91	140.583
1549.82	139.699
1550.74	138.629
1551.66	137.527
1552.57	136.294
1553.49	135.204
1554.4	133.535
1555.32	131.717
1556.23	129.805
1557.15	127.855
1558.06	126.056
1558.97	124.401
1559.89	123.071
1560.8	121.933
1561.71	121.052
1562.63	120.341
1563.54	119.719
1564.45	119.46
1565.36	119.231
1566.28	118.813
1567.19	118.565
1568.1	118.499
1569.01	118.548
1569.92	118.624
1570.83	118.466
1571.74	118.334
1572.65	118.244
1573.56	118.094
1574.47	118.201
1575.38	118.228
1576.29	117.647
1577.2	116.769
1578.11	116.137
1579.01	115.878
1579.92	115.589
1580.83	115.431
1581.74	116.22
1582.64	116.63
1583.55	116.635
1584.46	116.184
1585.36	115.847
1586.27	115.725
1587.18	115.726
1588.08	115.7
1588.99	115.679
1589.89	115.707
1590.8	115.955
1591.7	116.095
1592.61	116.114
1593.51	116.293
1594.41	116.687
1595.32	116.898
1596.22	116.963
1597.12	117.233
1598.03	117.543
1598.93	117.744
1599.83	118.059
1600.73	118.403
1601.64	118.421
1602.54	118.133
1603.44	117.457
1604.34	116.798
1605.24	116.302
1606.14	115.812
1607.04	115.16
1607.94	114.371
1608.84	113.357
1609.74	112.115
1610.64	110.852
1611.54	109.687
1612.44	109.149
1613.33	109.214
1614.23	109.173
1615.13	109.151
1616.03	109.359
1616.92	109.114
1617.82	108.737
1618.72	108.62
1619.61	108.476
1620.51	108.184
1621.41	107.67
1622.3	107.224
1623.2	106.789
1624.09	106.452
1624.99	105.906
1625.88	105.344
1626.78	104.781
1627.67	104.128
1628.57	103.561
1629.46	103.056
1630.35	102.778
1631.25	102.889
1632.14	103.275
1632.85	103.331
1633.78	103.946
1634.71	104.665
1635.64	105.288
1636.57	106.342
1637.5	107.146
1638.42	107.71
1639.35	108.069
1640.28	108.665
1641.21	108.597
1642.13	108.174
1643.06	107.836
1643.99	107.223
1644.91	106.642
1645.84	105.516
1646.77	104.6
1647.69	104.045
1648.62	103.242
1649.54	102.582
1650.47	101.934
1651.39	101.239
1652.32	100.675
1653.24	100.194
1654.17	99.7112
1655.09	99.5813
1656.01	100.371
1656.94	100.322
1657.86	100.802
1658.78	101.591
1659.71	102.412
1660.63	102.951
1661.55	103.806
1662.47	103.823
1663.4	103.629
1664.32	103.489
1665.24	103.326
1666.16	103.735
1667.08	103.959
1668	104.209
1668.92	104.313
1669.84	104.241
1670.76	103.117
1671.68	102.169
1672.6	101.179
1673.52	100.408
1674.44	100.677
1675.36	98.5679
1676.28	97.5832
1677.2	97.0621
1678.12	97.148
1679.03	96.818
1679.95	96.8586
1680.87	96.8096
1681.79	96.3833
1682.7	96.4177
1683.62	96.5775
1684.54	96.9522
1685.45	97.1176
1686.37	96.7257
1687.29	96.7614
1688.2	96.4736
1689.12	96.687
1690.03	96.5461
1690.95	97.2016
1691.86	97.2088
1692.78	97.1437
1693.69	96.7369
1694.61	96.0728
1695.52	95.1078
1696.43	94.1665
1697.35	92.5716
1698.26	91.1332
1699.17	90.3627
1700.09	89.5685
1701	89.4525
1701.91	89.2998
1702.82	89.1523
1703.74	89.5281
1704.65	89.8597
1705.56	90.2542
1706.47	90.6276
1707.38	91.1596
1708.29	91.3529
1709.2	92.0274
1710.11	92.8661
1711.02	93.2825
1711.93	93.4064
1712.84	93.3047
1713.75	93.6247
1714.66	93.3295
1715.57	92.9313
1716.48	92.7744
1717.39	92.471
1718.3	92.0638
1719.21	91.5492
1720.11	91.8754
1721.02	92.2062
1721.93	91.4174
1722.84	90.5602
1723.74	89.4757
1724.65	87.9104
1725.56	86.9591
1726.46	86.3382
1727.37	85.9776
1728.28	85.4955
1729.18	85.5125
1730.09	85.4763
1730.99	85.7524
1731.9	86.1537
1732.8	86.6589
1733.71	87.1527
1734.61	87.3024
1735.52	87.3913
1736.42	87.2156
1737.32	86.4983
1738.23	87.3282
1739.13	88.1749
1740.03	89.8763
1740.94	90.9965
1741.84	90.5803
1742.74	90.0592
1743.64	89.607
1744.54	88.8887
1745.45	88.363
1746.35	88.167
1747.25	87.9971
1748.15	87.3749
1749.05	87.041
1749.95	86.6803
1750.85	85.597
1751.75	84.542
1752.65	84.6122
1753.55	83.9083
1754.45	83.6221
1755.35	83.4318
1756.25	84.0594
1757.15	84.9228
1758.05	85.0318
1758.94	84.3178
1759.84	82.7961
1760.74	81.9223
1761.64	81.767
1762.53	82.1203
1763.43	82.2706
1764.33	82.6749
1765.23	82.9766
1766.12	83.3912
1767.02	84.2705
1767.91	84.7375
1768.81	84.5654
1769.71	84.21
1770.6	84.1786
1771.5	84.1748
1772.39	84.1713
1773.29	84.3353
1774.18	84.0721
1775.07	83.4802
1775.97	82.9552
1776.86	82.6338
1777.76	82.1943
1778.65	81.7576
1779.54	81.0283
1780.44	80.6439
1781.33	80.4291
1782.22	81.1961
1783.11	81.2992
1784.01	81.2311
1784.9	81.1587
1785.79	80.3497
1786.68	79.7875
1787.57	79.7806
1788.46	79.9247
1789.35	80.0376
1790.24	80.0486
1791.13	79.6811
1792.02	79.2366
1792.91	78.3231
1793.8	77.5862
1794.69	77.1493
1795.58	76.0732
1796.47	75.7496
1797.36	75.5146
1798.25	75.7366
1799.14	73.4386
