Acq. time (s)=	15
Accumulations=	2
Range (cm-¹)=	600...1800
Windows=	2
Autofocus=	Off
AutoExposure=	Off
Spike filter=	Multiple accum.
Delay time (s)=	1
Binning=	1
Readout mode=	Signal
DeNoise=	Standard
ICS correction=	Off
Dark correction=	Off
Inst. Process=	Off
Instrument=	XploRA
Detector=	Syncerity
Objective=	x20LWD
Grating=	1200 gr/mm
Filter=	25%
Laser (nm)=	785 
Slit (µm)=	100 
Hole (µm)=	300 
Laser pol=	None
Raman pol=	None
Output=	Camera
StageXY=	Marzhauser
StageZ=	
X (µm)=	-6067.9
Y (µm)=	-183.4
Project=	
Sample=	
Site=	
Title=	To2
Remark=	
Date=	29.10.2022 05:10
Acquired=	29.10.2022 05:10:03
600.839	397.737
602.009	404.837
603.178	410.013
604.347	415.778
605.516	421.035
606.684	425.739
607.852	430.017
609.02	433.088
610.187	436.001
611.355	438.864
612.521	441.932
613.688	445.013
614.854	448.06
616.02	451.117
617.185	454.307
618.351	457.507
619.516	460.738
620.681	464.009
621.846	467.221
623.009	470.411
624.174	473.534
625.337	476.524
626.501	479.52
627.664	482.267
628.826	485.121
629.988	487.784
631.151	490.153
632.313	491.967
633.474	492.564
634.635	492.731
635.797	492.497
636.958	491.418
638.117	490.101
639.278	488.89
640.437	487.816
641.597	486.911
642.756	486.286
643.915	485.899
645.074	485.707
646.233	485.899
647.391	486.297
648.548	487.134
649.706	488.011
650.863	489.55
652.02	491.414
653.176	493.458
654.333	495.622
655.489	497.675
656.645	499.728
657.8	500.905
658.955	502.294
660.11	503.484
661.264	504.592
662.419	505.535
663.573	506.285
664.727	506.938
665.88	507.42
667.033	507.767
668.186	508.024
669.338	508.165
670.491	508.274
671.643	508.278
672.794	508.367
673.945	508.385
675.096	508.346
676.247	508.657
677.398	508.764
678.548	508.434
679.698	505.126
680.847	503.813
681.997	503.089
683.146	503.591
684.294	504.195
685.443	504.446
686.591	504.129
687.739	503.541
688.887	502.769
690.034	502.122
691.181	501.659
692.328	501.506
693.474	501.892
694.62	502.775
695.766	505.606
696.911	507.092
698.057	507.238
699.202	506.825
700.346	506.269
701.49	505.764
702.635	504.698
703.779	503.431
704.922	502.167
706.065	500.96
707.208	499.849
708.351	498.874
709.493	498.137
710.635	497.835
711.776	497.65
712.918	497.61
714.059	497.79
715.2	498.045
716.341	498.791
717.481	499.618
718.621	500.381
719.761	500.399
720.9	500.116
722.04	499.137
723.178	497.632
724.317	496.012
725.455	493.982
726.594	492.398
727.731	490.895
728.868	489.649
730.005	488.873
731.142	488.593
732.279	488.919
733.415	489.528
734.551	490.72
735.686	492.268
736.822	494.06
737.957	496.335
739.092	498.727
740.226	501.031
741.36	502.342
742.495	503.092
743.628	503.098
744.762	502.162
745.895	500.348
747.027	498.027
748.16	495.794
749.292	493.663
750.423	491.247
751.555	488.805
752.686	485.925
753.817	482.568
754.949	478.299
756.079	476.582
757.209	475.781
758.339	477.227
759.469	476.25
760.597	475.028
761.727	473.326
762.856	471.356
763.984	469.088
765.112	466.414
766.24	463.459
767.367	460.363
768.494	457.072
769.622	453.871
770.749	451.758
771.874	451.781
773.001	450.969
774.127	450.448
775.253	449.554
776.377	448.682
777.503	447.94
778.627	448.215
779.751	447.449
780.876	446.557
782	445.434
783.123	444.926
784.246	444.684
785.37	444.14
786.492	443.245
787.614	442.147
788.737	440.66
789.858	439.08
790.979	437.436
792.101	435.757
793.222	434.165
794.342	432.507
795.463	430.794
796.583	429.085
797.702	427.38
798.822	425.718
799.942	423.959
801.06	422.301
802.179	420.807
803.297	419.506
804.415	418.804
805.533	418.703
806.651	418.774
807.768	419.721
808.885	420.786
810.001	421.717
811.118	421.282
812.233	420.489
813.349	419.366
814.464	418.137
815.58	416.652
816.695	415.278
817.809	413.714
818.924	411.945
820.038	409.532
821.152	406.677
822.265	404.126
823.378	402.338
824.491	401.196
825.604	400.8
826.716	401.251
827.828	402.137
828.94	403.677
830.051	405.592
831.162	408.531
832.273	409.174
833.383	409.458
834.494	409.542
835.604	409.371
836.714	408.826
837.823	407.368
838.932	406.299
840.041	405.36
841.15	403.931
842.258	401.461
843.366	398.53
844.474	395.345
845.581	391.929
846.688	392.162
847.795	395.034
848.901	400.03
850.008	401.313
851.115	401.879
852.22	401.127
853.325	399.14
854.43	396.342
855.536	392.859
856.64	389.924
857.745	388.718
858.848	387.227
859.952	386.272
861.055	385.482
862.158	385.314
863.261	384.917
864.364	384.239
865.466	383.672
866.568	383.192
867.67	382.748
868.771	382.379
869.873	382.003
870.973	381.758
872.074	381.406
873.174	381.163
874.274	380.862
875.374	380.418
876.473	379.814
877.572	378.716
878.671	376.879
879.77	374.389
880.868	371.967
881.966	369.618
883.064	368.07
884.161	367.097
885.258	366.592
886.356	366.646
887.452	366.955
888.548	367.481
889.645	366.846
890.74	365.929
891.836	364.978
892.931	364.038
894.025	363.491
895.12	363.064
896.214	362.834
897.308	362.74
898.402	362.729
899.495	362.618
900.588	363.405
901.681	364.286
902.774	365.241
903.866	366.068
904.958	366.781
906.05	367.418
907.142	367.689
908.233	367.766
909.324	367.684
910.414	367.471
911.504	367.052
912.594	366.491
913.684	365.818
914.774	364.998
915.863	363.969
916.952	362.905
918.041	361.595
919.129	360.055
920.217	358.077
921.305	356.145
922.392	354.111
923.48	351.969
924.567	349.597
925.653	347.307
926.74	344.288
927.825	341.292
928.911	338.359
929.997	335.544
931.082	333.926
932.166	332.394
933.252	331.235
934.336	330.584
935.42	330.363
936.504	330.604
937.587	331.568
938.671	332.721
939.753	334.008
940.836	334.742
941.919	335.65
943	336.556
944.082	337.231
945.163	337.833
946.245	337.41
947.326	336.192
948.406	334.744
949.487	333.453
950.567	332.113
951.647	330.799
952.727	329.497
953.805	328.241
954.885	327.1
955.964	325.956
957.042	325.057
958.12	324.175
959.198	323.532
960.276	322.918
961.352	322.513
962.43	322.198
963.507	321.805
964.583	320.877
965.659	319.045
966.735	317.971
967.81	317.408
968.885	317.236
969.961	317.503
971.036	318.185
972.11	319.066
973.184	320.133
974.258	321.358
975.332	322.331
976.405	323.06
977.478	323.892
978.551	324.368
979.624	326.7
980.696	329.019
981.767	331.126
982.839	333.014
983.911	333.737
984.982	334.532
986.052	335.555
987.123	336.656
988.193	337.867
989.263	337.827
990.333	337.299
991.403	336.526
992.471	335.318
993.54	334.068
994.608	332.08
995.677	328.904
996.745	325.756
997.812	323.388
998.88	322.124
999.947	319.213
1001.01	316.149
1002.08	313.37
1003.15	311.404
1004.21	310.081
1005.28	309.342
1006.34	309.679
1007.41	310.251
1008.47	310.989
1009.54	310.468
1010.6	309.336
1011.67	308.026
1012.73	306.896
1013.79	305.718
1014.86	304.452
1015.92	303.089
1016.98	301.539
1018.05	299.946
1019.11	298.094
1020.17	296.198
1021.23	294.027
1022.29	291.616
1023.35	289.263
1024.41	287.116
1025.47	286.068
1026.53	285.337
1027.59	285.521
1028.65	285.976
1029.71	286.147
1030.77	285.965
1031.83	285.741
1032.89	285.183
1033.95	284.495
1035	283.332
1036.06	282.943
1037.12	282.91
1038.18	282.997
1039.23	283.087
1040.29	283.218
1041.35	283.422
1042.4	283.715
1043.46	284.11
1044.51	284.764
1045.57	285.212
1046.62	285.125
1047.68	283.298
1048.73	281.805
1049.79	281.043
1050.84	281.063
1051.89	280.131
1052.95	279.182
1054	277.699
1055.05	276.078
1056.1	273.435
1057.16	271.851
1058.21	270.96
1059.26	270.7
1060.31	270.805
1061.36	271.275
1062.41	271.964
1063.46	272.996
1064.51	274.12
1065.56	274.908
1066.61	274.621
1067.66	275.463
1068.71	277.948
1069.76	278.04
1070.81	277.001
1071.85	274.905
1072.9	272.399
1073.95	268.736
1075	266.573
1076.04	264.63
1077.09	262.839
1078.14	261.55
1079.18	260.923
1080.23	261.338
1081.27	260.917
1082.32	260.192
1083.36	259.819
1084.41	259.444
1085.45	259.198
1086.5	258.943
1087.54	258.648
1088.59	258.409
1089.63	258.022
1090.67	257.334
1091.71	255.491
1092.76	254.63
1093.8	253.952
1094.84	253.37
1095.88	253.033
1096.92	252.996
1097.97	253.235
1099.01	254.036
1100.05	255.525
1101.09	257.357
1102.13	259.095
1103.17	260.238
1104.21	260.971
1105.25	261.292
1106.28	261.416
1107.32	261.144
1108.36	260.602
1109.4	259.676
1110.44	258.494
1111.47	256.926
1112.51	255.061
1113.55	252.919
1114.59	250.372
1115.62	247.63
1116.66	245.016
1117.69	243.315
1118.73	241.854
1119.77	241.076
1120.8	240.964
1121.84	241.34
1122.87	242.109
1123.9	243.156
1124.94	244.516
1125.97	245.987
1127	247.56
1128.04	248.985
1129.07	250.228
1130.1	251.497
1131.13	252.672
1132.17	253.895
1133.2	255.077
1134.23	256.38
1135.26	258.043
1136.29	260.741
1137.32	261.936
1138.35	262.376
1139.38	262.418
1140.41	261.933
1141.44	261.597
1142.47	261.601
1143.5	262.035
1144.53	263.293
1145.56	265.139
1146.59	267.431
1147.61	270.126
1148.64	273.046
1149.67	276.4
1150.7	279.702
1151.72	283.686
1152.75	284.646
1153.77	284.015
1154.8	282.875
1155.83	281.361
1156.85	278.116
1157.88	274.197
1158.9	269.554
1159.93	263.309
1160.95	257.214
1161.97	251.823
1163	246.826
1164.02	242.292
1165.04	238.69
1166.07	236.609
1167.09	235.816
1168.11	235.876
1169.13	237.33
1170.16	237.821
1171.18	238.592
1172.2	239.802
1173.22	241.268
1174.24	242.977
1175.26	244.729
1176.28	246.439
1177.3	247.971
1178.32	248.969
1179.34	249.875
1180.36	250.704
1181.38	251.307
1182.4	251.378
1183.41	251.073
1184.43	250.133
1185.45	248.992
1186.47	247.911
1187.48	246.234
1188.5	244.025
1189.52	241.9
1190.53	240.035
1191.55	238.368
1192.56	236.794
1193.58	235.367
1194.59	234.096
1195.61	231.901
1196.62	229.978
1197.64	228.758
1198.65	228.148
1199.67	228.167
1200.68	228.591
1201.69	228.018
1202.71	227.549
1203.72	227.203
1204.73	226.885
1205.74	226.703
1206.76	226.273
1207.77	225.617
1208.78	224.674
1209.79	224.691
1210.8	224.863
1211.81	224.983
1212.82	224.803
1213.83	224.627
1214.84	224.474
1215.85	224.024
1216.86	223.524
1217.87	223.092
1218.88	222.9
1219.88	223.359
1220.89	223.871
1221.9	224.394
1222.91	224.789
1223.92	224.867
1224.92	224.596
1225.93	223.907
1226.93	222.155
1227.94	220.261
1228.95	218.366
1229.95	216.739
1230.96	215.192
1231.96	213.701
1232.97	212.292
1233.97	210.941
1234.98	209.738
1235.98	208.561
1236.98	207.521
1237.99	206.663
1238.99	205.859
1239.99	205.052
1241	204.246
1242	203.386
1243	202.452
1244	201.114
1245	199.368
1246	197.794
1247.01	196.286
1248.01	195.103
1249.01	193.901
1250.01	192.564
1251.01	191.315
1252.01	190.417
1253	190.182
1254	190.271
1255	190.666
1256	191.268
1257	192.019
1258	193.003
1258.99	194.219
1259.99	195.775
1260.99	197.243
1261.99	198.05
1262.98	198.162
1263.98	197.628
1264.98	196.56
1265.97	195.675
1266.97	194.571
1267.96	193.306
1268.96	192.057
1269.95	190.924
1270.95	190.061
1271.94	189.699
1272.93	189.974
1273.93	190.708
1274.92	191.717
1275.91	191.996
1276.91	192.521
1277.9	193.287
1278.89	194.323
1279.88	195.534
1280.87	197.115
1281.87	197.813
1282.86	197.608
1283.85	197.161
1284.84	196.43
1285.83	195.367
1286.82	194.099
1287.81	192.749
1288.8	191.29
1289.79	189.967
1290.78	189.535
1291.76	189.565
1292.75	189.418
1293.74	189.28
1294.73	189.054
1295.72	188.75
1296.7	188.411
1297.69	188.019
1298.68	187.613
1299.66	187.154
1300.65	186.597
1301.64	186.021
1302.62	185.388
1303.61	184.753
1304.59	184.071
1305.58	183.405
1306.56	182.702
1307.55	182.035
1308.53	181.36
1309.51	180.715
1310.5	180.148
1311.48	179.564
1312.46	179.355
1313.45	179.57
1314.43	180.633
1315.41	181.981
1316.39	183.467
1317.38	184.65
1318.36	186.121
1319.34	188.025
1320.32	190.533
1321.3	192.756
1322.28	193.661
1323.26	194.215
1324.24	194.306
1325.22	193.934
1326.2	193.15
1327.18	191.873
1328.16	190.062
1329.13	187.836
1330.11	185.089
1331.09	181.888
1332.07	178.657
1333.04	176.652
1334.02	174.899
1335	173.391
1335.97	172.209
1336.95	171.386
1337.93	170.555
1338.9	169.711
1339.88	168.838
1340.85	167.797
1341.83	166.85
1342.8	166.031
1343.78	165.354
1344.75	164.912
1345.72	164.839
1346.7	165.188
1347.67	165.717
1348.65	165.63
1349.62	165.548
1350.59	165.66
1351.56	165.752
1352.53	165.556
1353.51	165.094
1354.48	164.337
1355.45	163.308
1356.42	162.135
1357.39	160.816
1358.36	159.395
1359.33	157.966
1360.3	156.598
1361.27	155.781
1362.24	155.509
1363.21	155.495
1364.18	155.403
1365.14	155.414
1366.11	155.54
1367.08	155.709
1368.05	156.026
1369.02	156.368
1369.98	156.868
1370.95	157.553
1371.92	158.237
1372.88	158.812
1373.85	159.265
1374.81	159.586
1375.78	159.129
1376.74	158.777
1377.71	158.103
1378.68	157.34
1379.64	156.619
1380.6	156.313
1381.57	155.95
1382.53	155.537
1383.49	155.139
1384.46	154.831
1385.42	154.585
1386.38	154.55
1387.34	154.769
1388.31	154.999
1389.27	155.239
1390.23	155.272
1391.19	154.95
1392.15	154.216
1393.11	152.998
1394.07	151.147
1395.03	149.071
1395.99	147.234
1396.95	145.612
1397.91	144.084
1398.87	142.701
1399.83	141.944
1400.79	141.487
1401.75	141.392
1402.7	141.543
1403.66	141.948
1404.62	142.489
1405.58	143.18
1406.53	144.071
1407.49	144.999
1408.45	145.829
1409.4	145.885
1410.36	145.6
1411.31	144.875
1412.27	144.047
1413.23	143.367
1414.18	142.753
1415.13	142.537
1416.09	142.261
1417.04	142.197
1418	142.415
1418.95	143.411
1419.9	144.377
1420.86	145.143
1421.81	145.956
1422.76	146.111
1423.71	143.803
1424.67	142.02
1425.62	141.948
1426.57	142.563
1427.52	143.771
1428.47	145.732
1429.42	148.143
1430.37	151.072
1431.32	151.753
1432.27	151.825
1433.22	151.814
1434.17	151.741
1435.12	151.658
1436.07	151.466
1437.02	151.365
1437.96	149.994
1438.91	148.753
1439.86	147.682
1440.81	146.747
1441.75	146.008
1442.7	145.534
1443.65	145.408
1444.59	145.65
1445.54	144.229
1446.49	142.834
1447.43	141.787
1448.38	141.896
1449.32	141.968
1450.27	141.979
1451.21	142.033
1452.15	142.262
1453.1	140.379
1454.04	139.179
1454.98	138.108
1455.93	137.231
1456.87	136.332
1457.81	135.634
1458.76	134.977
1459.7	134.477
1460.64	134.023
1461.58	133.631
1462.52	132.709
1463.46	131.59
1464.4	130.661
1465.34	129.676
1466.28	129.144
1467.22	129.438
1468.16	130.292
1469.1	131.124
1470.04	131.224
1470.98	131.318
1471.92	131.351
1472.86	130.717
1473.8	130.072
1474.73	129.464
1475.67	128.922
1476.61	128.534
1477.55	128.321
1478.48	128.203
1479.42	128.291
1480.36	128.526
1481.29	128.928
1482.23	129.49
1483.16	130.174
1484.1	130.963
1485.03	131.871
1485.97	132.863
1486.9	133.846
1487.84	134.392
1488.77	133.516
1489.7	133.542
1490.64	133.366
1491.57	132.782
1492.5	132.264
1493.44	131.977
1494.37	132.205
1495.3	132.564
1496.23	132.902
1497.16	132.955
1498.09	132.871
1499.02	132.421
1499.96	131.731
1500.89	131.289
1501.82	130.561
1502.75	129.804
1503.68	129.169
1504.61	128.746
1505.53	128.727
1506.46	128.9
1507.39	129.683
1508.32	131.728
1509.25	134.207
1510.18	137.014
1511.1	140.534
1512.03	144.655
1512.96	149.064
1513.88	153.712
1514.81	158.413
1515.74	162.78
1516.66	166.677
1517.59	170.019
1518.51	172.866
1519.44	175.394
1520.36	177.427
1521.29	179.068
1522.21	180.282
1523.14	181.05
1524.06	180.999
1524.98	179.798
1525.91	178.176
1526.83	176.088
1527.75	173.583
1528.68	170.79
1529.6	167.978
1530.52	164.731
1531.44	161.881
1532.36	160.481
1533.29	158.828
1534.21	154.937
1535.13	150.942
1536.05	147.308
1536.97	144.122
1537.89	141.194
1538.81	137.665
1539.73	134.342
1540.65	131.581
1541.56	129.35
1542.48	127.795
1543.4	126.826
1544.32	126.438
1545.24	126.525
1546.16	127.006
1547.07	127.811
1547.99	129.387
1548.91	130.491
1549.82	130.549
1550.74	130.286
1551.66	129.511
1552.57	128.18
1553.49	125.557
1554.4	122.93
1555.32	120.389
1556.23	118.007
1557.15	115.788
1558.06	113.956
1558.97	114.288
1559.89	113.037
1560.8	112.173
1561.71	111.471
1562.63	110.89
1563.54	110.36
1564.45	109.923
1565.36	109.544
1566.28	109.243
1567.19	108.976
1568.1	108.783
1569.01	108.536
1569.92	108.252
1570.83	107.984
1571.74	107.733
1572.65	107.579
1573.56	107.4
1574.47	107.252
1575.38	107.099
1576.29	106.937
1577.2	106.8
1578.11	106.404
1579.01	106.098
1579.92	106.262
1580.83	106.341
1581.74	106.286
1582.64	106.125
1583.55	105.539
1584.46	104.716
1585.36	103.923
1586.27	103.32
1587.18	102.841
1588.08	102.828
1588.99	103.661
1589.89	105.247
1590.8	106.105
1591.7	106.237
1592.61	105.24
1593.51	104.141
1594.41	104.788
1595.32	106.935
1596.22	106.331
1597.12	105.426
1598.03	103.418
1598.93	104.532
1599.83	107.055
1600.73	107.88
1601.64	107.676
1602.54	107.621
1603.44	107.872
1604.34	108.547
1605.24	109.247
1606.14	109.356
1607.04	109.29
1607.94	109.086
1608.84	108.605
1609.74	108.114
1610.64	107.584
1611.54	107.039
1612.44	106.363
1613.33	105.867
1614.23	104.985
1615.13	104.117
1616.03	103.349
1616.92	102.267
1617.82	101.537
1618.72	101.277
1619.61	101.494
1620.51	102.017
1621.41	102.804
1622.3	103.58
1623.2	103.812
1624.09	103.741
1624.99	103.63
1625.88	103.534
1626.78	103.401
1627.67	103.242
1628.57	103.099
1629.46	102.975
1630.35	102.72
1631.25	102.147
1632.14	101.524
1632.85	100.877
1633.78	99.8907
1634.71	98.6348
1635.64	97.7174
1636.57	97.3529
1637.5	97.6567
1638.42	98.049
1639.35	98.7773
1640.28	99.4893
1641.21	100.192
1642.13	100.221
1643.06	99.9165
1643.99	99.6123
1644.91	99.2304
1645.84	98.9016
1646.77	98.59
1647.69	98.2892
1648.62	97.992
1649.54	97.7102
1650.47	97.4343
1651.39	97.1791
1652.32	96.9323
1653.24	96.7089
1654.17	96.4884
1655.09	96.2316
1656.01	96.3176
1656.94	96.3508
1657.86	96.4391
1658.78	96.5924
1659.71	96.7865
1660.63	97.0382
1661.55	97.2448
1662.47	97.4048
1663.4	97.0622
1664.32	96.5501
1665.24	96.3535
1666.16	96.4276
1667.08	96.4254
1668	96.292
1668.92	96.192
1669.84	96.1108
1670.76	96.0115
1671.68	96.1834
1672.6	96.1538
1673.52	96.0358
1674.44	95.5745
1675.36	94.7058
1676.28	93.4764
1677.2	92.4395
1678.12	91.6802
1679.03	91.1499
1679.95	90.3548
1680.87	89.7258
1681.79	89.4942
1682.7	89.0129
1683.62	88.31
1684.54	87.7686
1685.45	87.1883
1686.37	86.6584
1687.29	86.1012
1688.2	86.0003
1689.12	85.5391
1690.03	85.5216
1690.95	85.7954
1691.86	86.0614
1692.78	86.4068
1693.69	86.9773
1694.61	87.7808
1695.52	88.6873
1696.43	89.5942
1697.35	90.2842
1698.26	90.583
1699.17	90.6067
1700.09	90.3919
1701	89.9574
1701.91	89.2299
1702.82	88.5023
1703.74	87.6092
1704.65	85.8854
1705.56	85.2803
1706.47	84.4701
1707.38	84.1078
1708.29	83.6926
1709.2	83.6705
1710.11	84.2248
1711.02	84.5506
1711.93	85.662
1712.84	86.2343
1713.75	86.8203
1714.66	87.0235
1715.57	87.0812
1716.48	86.8656
1717.39	86.5279
1718.3	86.0022
1719.21	85.1577
1720.11	84.3465
1721.02	83.4658
1721.93	82.7199
1722.84	82.0001
1723.74	81.7295
1724.65	81.8199
1725.56	81.9006
1726.46	82.0483
1727.37	82.5592
1728.28	82.8571
1729.18	82.9832
1730.09	83
1730.99	82.6332
1731.9	82.3128
1732.8	81.9437
1733.71	81.5487
1734.61	81.142
1735.52	80.7151
1736.42	79.9412
1737.32	77.2936
1738.23	77.276
1739.13	79.4394
1740.03	79.1926
1740.94	79.0593
1741.84	78.9132
1742.74	78.8744
1743.64	78.9155
1744.54	78.8709
1745.45	78.8417
1746.35	78.5715
1747.25	78.0082
1748.15	78.8242
1749.05	78.8324
1749.95	78.9475
1750.85	78.9727
1751.75	79.184
1752.65	79.4375
1753.55	79.7797
1754.45	79.5696
1755.35	79.3655
1756.25	79.2396
1757.15	79.2178
1758.05	78.4584
1758.94	77.969
1759.84	77.3518
1760.74	77.2134
1761.64	77.115
1762.53	76.8783
1763.43	76.7985
1764.33	76.7112
1765.23	76.526
1766.12	76.5982
1767.02	76.8629
1767.91	77.1122
1768.81	77.0585
1769.71	76.8996
1770.6	77.368
1771.5	78.2838
1772.39	79.3365
1773.29	79.7222
1774.18	80.0223
1775.07	79.8266
1775.97	79.076
1776.86	78.3842
1777.76	77.3209
1778.65	76.3679
1779.54	75.325
1780.44	74.2337
1781.33	73.2246
1782.22	71.7469
1783.11	70.6444
1784.01	69.7175
1784.9	69.4076
1785.79	69.1138
1786.68	71.6994
1787.57	72.9555
1788.46	73.7622
1789.35	74.6626
1790.24	75.7235
1791.13	76.3785
1792.02	77.0369
1792.91	76.5191
1793.8	75.9041
1794.69	75.2271
1795.58	74.4985
1796.47	73.6932
1797.36	72.9895
1798.25	72.1169
1799.14	71.361
