Acq. time (s)=	15
Accumulations=	2
Range (cm-¹)=	600...1800
Windows=	2
Autofocus=	Off
AutoExposure=	Off
Spike filter=	Multiple accum.
Delay time (s)=	1
Binning=	1
Readout mode=	Signal
DeNoise=	Standard
ICS correction=	Off
Dark correction=	Off
Inst. Process=	Off
Instrument=	XploRA
Detector=	Syncerity
Objective=	x20LWD
Grating=	1200 gr/mm
Filter=	25%
Laser (nm)=	785 
Slit (µm)=	100 
Hole (µm)=	300 
Laser pol=	None
Raman pol=	None
Output=	Camera
StageXY=	Marzhauser
StageZ=	
X (µm)=	-5035.9
Y (µm)=	1758.7
Project=	
Sample=	
Site=	
Title=	To2
Remark=	
Date=	29.10.2022 04:44
Acquired=	29.10.2022 04:44:47
600.839	730.703
602.009	743.853
603.178	757.439
604.347	771.212
605.516	785.84
606.684	797.265
607.852	807.785
609.02	817.46
610.187	826.614
611.355	835.412
612.521	844.502
613.688	852.999
614.854	860.846
616.02	867.474
617.185	874.09
618.351	880.032
619.516	884.744
620.681	888.336
621.846	891.602
623.009	894.269
624.174	896.506
625.337	898.315
626.501	899.747
627.664	901.415
628.826	903.477
629.988	904.203
631.151	904.584
632.313	904.182
633.474	903.593
634.635	902.998
635.797	902.373
636.958	901.825
638.117	901.523
639.278	901.204
640.437	900.928
641.597	900.883
642.756	901.211
643.915	903.289
645.074	905.449
646.233	907.09
647.391	908.789
648.548	910.758
649.706	912.442
650.863	913.855
652.02	913.836
653.176	914.017
654.333	914.486
655.489	915
656.645	916.185
657.8	917.948
658.955	921.395
660.11	924.793
661.264	927.471
662.419	929.67
663.573	931.478
664.727	933.338
665.88	935.155
667.033	936.591
668.186	938.021
669.338	939.352
670.491	940.597
671.643	940.77
672.794	941.078
673.945	942.777
675.096	944.581
676.247	946.318
677.398	947.64
678.548	948.753
679.698	949.701
680.847	950.124
681.997	950.452
683.146	949.151
684.294	948.697
685.443	949.585
686.591	951.369
687.739	953.445
688.887	953.652
690.034	952.053
691.181	951.822
692.328	951.432
693.474	950.76
694.62	949.462
695.766	947.902
696.911	945.948
698.057	943.551
699.202	940.864
700.346	938.45
701.49	935.936
702.635	933.484
703.779	931.56
704.922	931.273
706.065	932.354
707.208	934.859
708.351	937.338
709.493	938.953
710.635	940.393
711.776	941.8
712.918	942.798
714.059	944.588
715.2	943.641
716.341	941.498
717.481	938.636
718.621	935.098
719.761	930.845
720.9	927.164
722.04	924.497
723.178	921.945
724.317	919.717
725.455	916.501
726.594	915.516
727.731	916.199
728.868	918.362
730.005	921.833
731.142	926.752
732.279	932.461
733.415	939.458
734.551	945.676
735.686	950.029
736.822	953.076
737.957	954.985
739.092	955.098
740.226	953.993
741.36	951.806
742.495	949.486
743.628	945.898
744.762	941.914
745.895	938.043
747.027	933.801
748.16	928.757
749.292	923.778
750.423	920.49
751.555	917.981
752.686	916.061
753.817	913.741
754.949	909.914
756.079	905.609
757.209	900.282
758.339	895.547
759.469	891.495
760.597	887.896
761.727	884.74
762.856	882.334
763.984	880.039
765.112	877.72
766.24	875.122
767.367	872.294
768.494	869.399
769.622	866.627
770.749	864.556
771.874	862.636
773.001	861.523
774.127	860.166
775.253	855.497
776.377	850.97
777.503	846.058
778.627	840.041
779.751	837.089
780.876	838.127
782	839.92
783.123	842.317
784.246	844.987
785.37	847.603
786.492	849.996
787.614	848.273
788.737	837.302
789.858	833.042
790.979	830.412
792.101	831.204
793.222	829.13
794.342	826.13
795.463	823.08
796.583	819.515
797.702	815.242
798.822	810.093
799.942	806.608
801.06	803.977
802.179	801.915
803.297	800.3
804.415	799.168
805.533	798.574
806.651	798.252
807.768	798.363
808.885	798.215
810.001	796.681
811.118	794.178
812.233	791.218
813.349	787.742
814.464	784.067
815.58	780.212
816.695	776.3
817.809	772.199
818.924	768.8
820.038	767.15
821.152	766.87
822.265	767.662
823.378	769.807
824.491	772.676
825.604	775.914
826.716	779.447
827.828	782.799
828.94	785.951
830.051	788.667
831.162	790.662
832.273	792.01
833.383	792.654
834.494	792.498
835.604	791.336
836.714	788.839
837.823	785.902
838.932	783.386
840.041	781.296
841.15	779.611
842.258	778.494
843.366	778.184
844.474	778.271
845.581	778.548
846.688	777.365
847.795	775.354
848.901	773.515
850.008	771.568
851.115	770.551
852.22	769.249
853.325	766.744
854.43	763.298
855.536	759.226
856.64	754.557
857.745	749.32
858.848	744.251
859.952	739.569
861.055	736.161
862.158	733.413
863.261	731.109
864.364	729.326
865.466	727.949
866.568	726.805
867.67	726.013
868.771	725.719
869.873	726.21
870.973	727.306
872.074	727.849
873.174	727.579
874.274	726.299
875.374	723.918
876.473	720.672
877.572	715.85
878.671	713.188
879.77	710.568
880.868	708.347
881.966	706.245
883.064	704
884.161	702.136
885.258	700.846
886.356	700.056
887.452	700.229
888.548	703.441
889.645	703.563
890.74	704.168
891.836	704.886
892.931	705.851
894.025	706.384
895.12	705.65
896.214	703.036
897.308	698.565
898.402	695.367
899.495	693.892
900.588	693.375
901.681	692.195
902.774	691.325
903.866	691.697
904.958	692.814
906.05	695.648
907.142	702.399
908.233	711.144
909.324	713.966
910.414	715.632
911.504	715.629
912.594	715.911
913.684	714.944
914.774	711.491
915.863	707.05
916.952	702.505
918.041	697.214
919.129	691.179
920.217	683.913
921.305	678.755
922.392	673.669
923.48	669.297
924.567	665.393
925.653	662.436
926.74	657.898
927.825	658.199
928.911	659.609
929.997	662.847
931.082	667.115
932.166	668.809
933.252	668.616
934.336	666.875
935.42	663.387
936.504	657.61
937.587	648.808
938.671	642.609
939.753	638.688
940.836	642.536
941.919	642.651
943	642.678
944.082	643.013
945.163	643.941
946.245	644.723
947.326	645.014
948.406	644.8
949.487	644.467
950.567	644.255
951.647	643.71
952.727	641.458
953.805	639.241
954.885	637.313
955.964	634.697
957.042	632.02
958.12	630.229
959.198	628.603
960.276	627.693
961.352	626.86
962.43	625.993
963.507	624.865
964.583	623.124
965.659	621.444
966.735	619.279
967.81	617.267
968.885	615.538
969.961	614.449
971.036	614.113
972.11	614.14
973.184	614.635
974.258	615.774
975.332	617.548
976.405	619.939
977.478	622.577
978.551	625.329
979.624	627.54
980.696	629.438
981.767	631.26
982.839	632.896
983.911	634.249
984.982	635.281
986.052	635.997
987.123	636.2
988.193	635.504
989.263	634.667
990.333	633.745
991.403	633.693
992.471	634.154
993.54	632.789
994.608	630.816
995.677	628.402
996.745	624.974
997.812	621.056
998.88	616.82
999.947	612.552
1001.01	608.183
1002.08	603.926
1003.15	599.832
1004.21	595.986
1005.28	592.674
1006.34	589.169
1007.41	585.796
1008.47	584.452
1009.54	582.119
1010.6	579.952
1011.67	578.169
1012.73	576.873
1013.79	575.829
1014.86	575.018
1015.92	574.03
1016.98	572.509
1018.05	569.337
1019.11	566.236
1020.17	563.656
1021.23	562.385
1022.29	559.12
1023.35	556.047
1024.41	554.515
1025.47	552.644
1026.53	550.549
1027.59	548.967
1028.65	547.816
1029.71	547.156
1030.77	546.793
1031.83	546.633
1032.89	546.798
1033.95	547.138
1035	547.789
1036.06	548.491
1037.12	549.484
1038.18	549.634
1039.23	549.364
1040.29	548.707
1041.35	547.518
1042.4	546.273
1043.46	545.799
1044.51	546.96
1045.57	548.304
1046.62	548.494
1047.68	547.819
1048.73	546.129
1049.79	544.291
1050.84	542.831
1051.89	541.469
1052.95	540.09
1054	539.284
1055.05	538.565
1056.1	537.715
1057.16	536.001
1058.21	534.675
1059.26	532.887
1060.31	533.513
1061.36	534.015
1062.41	534.561
1063.46	536.569
1064.51	538.331
1065.56	538.942
1066.61	538.577
1067.66	537.148
1068.71	534.788
1069.76	531.507
1070.81	526.749
1071.85	521.577
1072.9	517.181
1073.95	513.184
1075	509.256
1076.04	505.802
1077.09	502.675
1078.14	500.068
1079.18	497.973
1080.23	496.471
1081.27	495.579
1082.32	495.454
1083.36	496.039
1084.41	497.13
1085.45	498.881
1086.5	501.084
1087.54	503.289
1088.59	505.198
1089.63	505.506
1090.67	505.302
1091.71	503.623
1092.76	501.78
1093.8	500.162
1094.84	498.732
1095.88	497.561
1096.92	496.705
1097.97	496.262
1099.01	496.108
1100.05	496.222
1101.09	496.628
1102.13	497.377
1103.17	498.421
1104.21	499.817
1105.25	501.655
1106.28	503.991
1107.32	506.434
1108.36	507.421
1109.4	507.292
1110.44	506.365
1111.47	504.412
1112.51	499.893
1113.55	495.879
1114.59	493.046
1115.62	491.048
1116.66	490.053
1117.69	489.297
1118.73	487.856
1119.77	486.257
1120.8	484.604
1121.84	482.339
1122.87	479.979
1123.9	477.565
1124.94	475.498
1125.97	474.306
1127	473.102
1128.04	471.968
1129.07	470.687
1130.1	468.988
1131.13	467.715
1132.17	467.152
1133.2	472.421
1134.23	480.002
1135.26	489.03
1136.29	496.704
1137.32	503.952
1138.35	510.911
1139.38	514.652
1140.41	516.388
1141.44	516.225
1142.47	515.969
1143.5	516.54
1144.53	517.266
1145.56	518.668
1146.59	520.257
1147.61	522.014
1148.64	523.253
1149.67	524.801
1150.7	525.837
1151.72	525.929
1152.75	526.036
1153.77	525.789
1154.8	524.692
1155.83	522.157
1156.85	518.451
1157.88	513.359
1158.9	506.534
1159.93	498.479
1160.95	492.679
1161.97	487.039
1163	481.81
1164.02	477.165
1165.04	472.995
1166.07	469.598
1167.09	467.079
1168.11	465.364
1169.13	464.724
1170.16	464.959
1171.18	466.233
1172.2	468.63
1173.22	471.881
1174.24	476.137
1175.26	478.703
1176.28	480.02
1177.3	481.5
1178.32	483.002
1179.34	484.819
1180.36	486.479
1181.38	487.996
1182.4	488.987
1183.41	489.21
1184.43	488.432
1185.45	486.246
1186.47	483.272
1187.48	473.517
1188.5	468.478
1189.52	463.535
1190.53	458.786
1191.55	454.178
1192.56	449.614
1193.58	445.392
1194.59	441.28
1195.61	437.65
1196.62	434.614
1197.64	432.723
1198.65	431.889
1199.67	431.836
1200.68	432.944
1201.69	434.45
1202.71	436.148
1203.72	436.999
1204.73	437.602
1205.74	438.104
1206.76	438.427
1207.77	438.637
1208.78	438.736
1209.79	438.801
1210.8	439
1211.81	439.265
1212.82	439.381
1213.83	439.48
1214.84	439.559
1215.85	439.708
1216.86	439.524
1217.87	439.741
1218.88	440.699
1219.88	441.866
1220.89	443.102
1221.9	444.525
1222.91	445.985
1223.92	447.044
1224.92	447.638
1225.93	446.141
1226.93	442.416
1227.94	438.966
1228.95	434.891
1229.95	431.492
1230.96	428.225
1231.96	424.461
1232.97	421.37
1233.97	419.806
1234.98	416.735
1235.98	412.468
1236.98	408.428
1237.99	405.749
1238.99	402.673
1239.99	399.763
1241	398.037
1242	396.89
1243	395.973
1244	395.25
1245	394.542
1246	393.869
1247.01	393.246
1248.01	392.913
1249.01	392.701
1250.01	392.482
1251.01	392.275
1252.01	391.247
1253	390.234
1254	389.279
1255	388.386
1256	388.506
1257	388.721
1258	388.915
1258.99	388.712
1259.99	388.372
1260.99	387.951
1261.99	387.441
1262.98	386.754
1263.98	386.163
1264.98	385.453
1265.97	384.779
1266.97	383.983
1267.96	383.148
1268.96	381.791
1269.95	380.067
1270.95	378.67
1271.94	377.948
1272.93	377.383
1273.93	377.842
1274.92	378.575
1275.91	378.857
1276.91	379.432
1277.9	380.376
1278.89	380.732
1279.88	380.839
1280.87	380.903
1281.87	380.946
1282.86	381.194
1283.85	381.564
1284.84	381.356
1285.83	379.548
1286.82	377.355
1287.81	374.91
1288.8	373.204
1289.79	371.636
1290.78	369.976
1291.76	367.524
1292.75	365.575
1293.74	364.232
1294.73	362.972
1295.72	362.194
1296.7	362.035
1297.69	362.388
1298.68	361.748
1299.66	361.704
1300.65	362.689
1301.64	363.357
1302.62	364.451
1303.61	365.931
1304.59	366.589
1305.58	366.251
1306.56	366.464
1307.55	365.723
1308.53	363.62
1309.51	360.866
1310.5	357.566
1311.48	351.677
1312.46	349.431
1313.45	348.576
1314.43	348.543
1315.41	349.582
1316.39	351.805
1317.38	355.038
1318.36	359.292
1319.34	364.587
1320.32	370.633
1321.3	376.385
1322.28	380.99
1323.26	384.743
1324.24	387.435
1325.22	388.709
1326.2	388.286
1327.18	386.074
1328.16	381.956
1329.13	375.464
1330.11	369.399
1331.09	363.524
1332.07	357.616
1333.04	351.175
1334.02	345.21
1335	339.866
1335.97	335.826
1336.95	333.027
1337.93	330.902
1338.9	329.473
1339.88	328.486
1340.85	327.643
1341.83	327.022
1342.8	327.482
1343.78	328.155
1344.75	328.971
1345.72	329.524
1346.7	329.786
1347.67	329.934
1348.65	329.945
1349.62	329.799
1350.59	329.519
1351.56	328.939
1352.53	327.984
1353.51	326.957
1354.48	325.947
1355.45	324.826
1356.42	323.898
1357.39	322.638
1358.36	320.618
1359.33	318.542
1360.3	316.59
1361.27	314.871
1362.24	313.73
1363.21	313.015
1364.18	312.635
1365.14	312.256
1366.11	310.562
1367.08	309.482
1368.05	309.185
1369.02	309.689
1369.98	310.966
1370.95	312.616
1371.92	314.097
1372.88	315.904
1373.85	317.479
1374.81	316.923
1375.78	316.08
1376.74	315.125
1377.71	314.406
1378.68	313.51
1379.64	312.631
1380.6	311.691
1381.57	311.011
1382.53	310.268
1383.49	310.019
1384.46	309.842
1385.42	308.854
1386.38	308.18
1387.34	307.273
1388.31	307.649
1389.27	307.838
1390.23	307.061
1391.19	305.505
1392.15	303.909
1393.11	302.279
1394.07	300.676
1395.03	299.089
1395.99	297.566
1396.95	296.492
1397.91	295.423
1398.87	294.457
1399.83	293.62
1400.79	292.908
1401.75	292.347
1402.7	291.993
1403.66	291.686
1404.62	291.524
1405.58	291.454
1406.53	291.466
1407.49	291.697
1408.45	290.409
1409.4	289.618
1410.36	288.912
1411.31	289.105
1412.27	289.24
1413.23	288.279
1414.18	287.445
1415.13	286.685
1416.09	286.148
1417.04	286.124
1418	285.587
1418.95	285.383
1419.9	285.532
1420.86	285.946
1421.81	286.457
1422.76	286.868
1423.71	287.403
1424.67	286.665
1425.62	285.963
1426.57	286.611
1427.52	287.455
1428.47	289.019
1429.42	291.246
1430.37	293.817
1431.32	295.797
1432.27	294.37
1433.22	295.144
1434.17	295.832
1435.12	296.869
1436.07	298.725
1437.02	302.474
1437.96	302.089
1438.91	300.29
1439.86	297.413
1440.81	294.18
1441.75	291.711
1442.7	288.72
1443.65	286.3
1444.59	284.006
1445.54	282.232
1446.49	280.082
1447.43	277.722
1448.38	275.898
1449.32	275.349
1450.27	274.447
1451.21	273.106
1452.15	273.311
1453.1	273.289
1454.04	272.787
1454.98	272.118
1455.93	271.48
1456.87	270.59
1457.81	269.375
1458.76	268.386
1459.7	267.812
1460.64	266.902
1461.58	265.799
1462.52	264.538
1463.46	263.861
1464.4	262.237
1465.34	261.339
1466.28	260.47
1467.22	259.47
1468.16	259.002
1469.1	259.18
1470.04	260.204
1470.98	260.536
1471.92	260.932
1472.86	261.351
1473.8	261.363
1474.73	261.219
1475.67	261.603
1476.61	261.258
1477.55	261.485
1478.48	261.228
1479.42	260.471
1480.36	259.938
1481.29	259.413
1482.23	259.465
1483.16	259.606
1484.1	259.818
1485.03	260.018
1485.97	260.214
1486.9	260.412
1487.84	260.498
1488.77	260.593
1489.7	260.562
1490.64	260.366
1491.57	260.106
1492.5	259.728
1493.44	259.432
1494.37	258.385
1495.3	255.976
1496.23	254.38
1497.16	253.437
1498.09	253.031
1499.02	252.744
1499.96	252.838
1500.89	252.879
1501.82	253.693
1502.75	255.028
1503.68	256.243
1504.61	258.044
1505.53	259.686
1506.46	261.742
1507.39	264.248
1508.32	267.197
1509.25	270.494
1510.18	274.364
1511.1	278.865
1512.03	284.184
1512.96	289.798
1513.88	295.34
1514.81	300.883
1515.74	306.14
1516.66	310.97
1517.59	315.46
1518.51	319.502
1519.44	323.09
1520.36	326.164
1521.29	328.524
1522.21	330.299
1523.14	331.491
1524.06	331.825
1524.98	331.665
1525.91	331.338
1526.83	331.42
1527.75	329.371
1528.68	325.363
1529.6	320.288
1530.52	313.596
1531.44	306.936
1532.36	300.861
1533.29	294.883
1534.21	289.83
1535.13	285.079
1536.05	281.095
1536.97	275.064
1537.89	268.923
1538.81	263.559
1539.73	259.252
1540.65	256.179
1541.56	256.008
1542.48	254.373
1543.4	252.831
1544.32	251.391
1545.24	250.482
1546.16	250.116
1547.07	249.803
1547.99	249.178
1548.91	248.086
1549.82	246.537
1550.74	245.105
1551.66	242.856
1552.57	240.18
1553.49	236.967
1554.4	233.734
1555.32	230.688
1556.23	228.426
1557.15	226.4
1558.06	224.724
1558.97	223.336
1559.89	222.02
1560.8	220.705
1561.71	219.384
1562.63	218.139
1563.54	216.821
1564.45	215.623
1565.36	214.423
1566.28	213.24
1567.19	212.067
1568.1	210.991
1569.01	210.159
1569.92	209.34
1570.83	208.635
1571.74	208.143
1572.65	207.913
1573.56	207.916
1574.47	208.029
1575.38	208.268
1576.29	208.936
1577.2	209.316
1578.11	209.045
1579.01	208.395
1579.92	207.602
1580.83	206.712
1581.74	205.611
1582.64	204.377
1583.55	203.02
1584.46	201.653
1585.36	200.387
1586.27	199.667
1587.18	199.384
1588.08	198.978
1588.99	198.737
1589.89	198.881
1590.8	199.537
1591.7	200.602
1592.61	201.907
1593.51	203.353
1594.41	204.5
1595.32	205.941
1596.22	206.605
1597.12	207.104
1598.03	207.595
1598.93	208.307
1599.83	208.65
1600.73	208.091
1601.64	207.385
1602.54	206.863
1603.44	206.223
1604.34	205.6
1605.24	205.316
1606.14	204.907
1607.04	204.224
1607.94	203.705
1608.84	203.255
1609.74	202.721
1610.64	201.771
1611.54	200.615
1612.44	198.986
1613.33	197.595
1614.23	196.029
1615.13	194.553
1616.03	193.151
1616.92	192.274
1617.82	191.899
1618.72	190.46
1619.61	189.71
1620.51	189.256
1621.41	188.979
1622.3	188.802
1623.2	188.736
1624.09	189.09
1624.99	189.356
1625.88	189.582
1626.78	189.937
1627.67	190.323
1628.57	190.09
1629.46	188.393
1630.35	186.651
1631.25	185.901
1632.14	185.711
1632.85	185.498
1633.78	185.719
1634.71	185.498
1635.64	185.329
1636.57	185.811
1637.5	186.117
1638.42	187.099
1639.35	187.499
1640.28	186.912
1641.21	186.436
1642.13	185.614
1643.06	185.953
1643.99	184.801
1644.91	183.239
1645.84	181.78
1646.77	180.874
1647.69	180.322
1648.62	180.241
1649.54	180.537
1650.47	181.223
1651.39	182.166
1652.32	183.245
1653.24	183.198
1654.17	182.726
1655.09	182.431
1656.01	181.842
1656.94	181.305
1657.86	181.057
1658.78	180.433
1659.71	179.911
1660.63	179.903
1661.55	179.862
1662.47	180.168
1663.4	179.791
1664.32	179.466
1665.24	178.787
1666.16	177.247
1667.08	175.959
1668	174.948
1668.92	174.203
1669.84	173.372
1670.76	172.724
1671.68	172.093
1672.6	171.704
1673.52	171.835
1674.44	171.41
1675.36	170.709
1676.28	165.41
1677.2	166.78
1678.12	171.518
1679.03	173.052
1679.95	173.978
1680.87	174.414
1681.79	174.833
1682.7	175.204
1683.62	173.473
1684.54	172.874
1685.45	172.273
1686.37	171.865
1687.29	171.304
1688.2	171.749
1689.12	171.611
1690.03	171.283
1690.95	170.377
1691.86	168.729
1692.78	167.587
1693.69	166.366
1694.61	165.052
1695.52	163.166
1696.43	162.028
1697.35	161.322
1698.26	160.946
1699.17	160.581
1700.09	160.707
1701	160.64
1701.91	161.457
1702.82	163.042
1703.74	163.941
1704.65	164.345
1705.56	164.719
1706.47	164.902
1707.38	164.677
1708.29	163.771
1709.2	162.465
1710.11	161.614
1711.02	160.365
1711.93	159.303
1712.84	158.062
1713.75	157.237
1714.66	156.892
1715.57	156.504
1716.48	156.871
1717.39	157.108
1718.3	157.921
1719.21	158.593
1720.11	159.364
1721.02	159.719
1721.93	160.504
1722.84	161.11
1723.74	160.811
1724.65	160.704
1725.56	160.881
1726.46	160.944
1727.37	160.55
1728.28	159.453
1729.18	158.478
1730.09	157.175
1730.99	155.679
1731.9	154.348
1732.8	153.083
1733.71	152.278
1734.61	151.597
1735.52	151.293
1736.42	150.932
1737.32	151.131
1738.23	150.626
1739.13	150.86
1740.03	151.025
1740.94	151.829
1741.84	152.25
1742.74	151.949
1743.64	151.756
1744.54	152.004
1745.45	152.455
1746.35	153.087
1747.25	153.162
1748.15	152.946
1749.05	151.896
1749.95	148.093
1750.85	146.249
1751.75	145.226
1752.65	145.567
1753.55	148.789
1754.45	148.152
1755.35	147.299
1756.25	146.611
1757.15	145.702
1758.05	144.874
1758.94	143.881
1759.84	143.061
1760.74	142.995
1761.64	143.372
1762.53	144.08
1763.43	144.68
1764.33	145.108
1765.23	145.348
1766.12	146.146
1767.02	145.448
1767.91	146.309
1768.81	148.431
1769.71	138.274
1770.6	144.223
1771.5	145.38
1772.39	146.662
1773.29	145.039
1774.18	144.902
1775.07	143.861
1775.97	143.329
1776.86	143.916
1777.76	144.017
1778.65	144.094
1779.54	143.31
1780.44	142.584
1781.33	141.554
1782.22	140.905
1783.11	140.83
1784.01	140.921
1784.9	141.106
1785.79	141.106
1786.68	139.737
1787.57	137.987
1788.46	136.696
1789.35	134.942
1790.24	133.256
1791.13	131.57
1792.02	130.356
1792.91	129.159
1793.8	128.654
1794.69	130.162
1795.58	130.695
1796.47	131.909
1797.36	133.368
1798.25	133.227
1799.14	133.201
