Acq. time (s)=	15
Accumulations=	2
Range (cm-¹)=	600...1800
Windows=	2
Autofocus=	Off
AutoExposure=	Off
Spike filter=	Multiple accum.
Delay time (s)=	1
Binning=	1
Readout mode=	Signal
DeNoise=	Standard
ICS correction=	Off
Dark correction=	Off
Inst. Process=	Off
Instrument=	XploRA
Detector=	Syncerity
Objective=	x20LWD
Grating=	1200 gr/mm
Filter=	25%
Laser (nm)=	785 
Slit (µm)=	100 
Hole (µm)=	300 
Laser pol=	None
Raman pol=	None
Output=	Camera
StageXY=	Marzhauser
StageZ=	
X (µm)=	1632.3
Y (µm)=	4160
Project=	
Sample=	
Site=	
Title=	To2
Remark=	
Date=	29.10.2022 04:59
Acquired=	29.10.2022 04:59:50
600.839	474.052
602.009	479.937
603.178	484.848
604.347	488.919
605.516	492.522
606.684	496.287
607.852	500.735
609.02	506.08
610.187	509.795
611.355	514.811
612.521	519.329
613.688	523.708
614.854	527.648
616.02	531.103
617.185	534.308
618.351	537.335
619.516	540.217
620.681	542.936
621.846	545.587
623.009	548.255
624.174	550.855
625.337	553.407
626.501	555.531
627.664	557.26
628.826	558.726
629.988	559.935
631.151	560.861
632.313	561.535
633.474	562.197
634.635	562.894
635.797	563.5
636.958	563.927
638.117	564.352
639.278	564.684
640.437	564.755
641.597	564.685
642.756	564.432
643.915	564.329
645.074	565.015
646.233	565.846
647.391	567.2
648.548	568.917
649.706	569.912
650.863	570.464
652.02	570.187
653.176	569.164
654.333	568.44
655.489	568.114
656.645	568.008
657.8	567.848
658.955	567.604
660.11	566.966
661.264	565.898
662.419	564.691
663.573	563.557
664.727	562.701
665.88	562.641
667.033	563.167
668.186	564.312
669.338	566.43
670.491	571.435
671.643	573.514
672.794	574.443
673.945	574.151
675.096	573.526
676.247	573.287
677.398	572.872
678.548	572.428
679.698	572.048
680.847	571.911
681.997	571.925
683.146	571.78
684.294	571.607
685.443	571.554
686.591	571.779
687.739	572.402
688.887	573.293
690.034	574.122
691.181	574.802
692.328	575.002
693.474	574.745
694.62	573.749
695.766	571.505
696.911	570.004
698.057	568.675
699.202	567.99
700.346	567.528
701.49	567.235
702.635	566.94
703.779	566.624
704.922	566.194
706.065	566.025
707.208	565.854
708.351	566.445
709.493	567.317
710.635	568.023
711.776	568.453
712.918	567.896
714.059	567.171
715.2	566.008
716.341	564.627
717.481	562.827
718.621	561.591
719.761	561.491
720.9	561.671
722.04	561.94
723.178	562.407
724.317	562.732
725.455	562.919
726.594	563.113
727.731	563.431
728.868	564.016
730.005	565.003
731.142	566.549
732.279	567.82
733.415	569.085
734.551	570.341
735.686	571.242
736.822	572.134
737.957	573.254
739.092	575.921
740.226	575.064
741.36	572.903
742.495	570.322
743.628	567.811
744.762	565.562
745.895	563.205
747.027	560.65
748.16	557.803
749.292	554.026
750.423	550.002
751.555	546.727
752.686	543.765
753.817	541.444
754.949	539.792
756.079	539.088
757.209	541.255
758.339	539.403
759.469	537.372
760.597	535.203
761.727	532.402
762.856	529.024
763.984	525.859
765.112	523.513
766.24	521.84
767.367	520.304
768.494	515.172
769.622	512.432
770.749	510.062
771.874	508.694
773.001	508.048
774.127	508.945
775.253	507.798
776.377	506.76
777.503	505.89
778.627	504.657
779.751	502.907
780.876	501.499
782	500.655
783.123	500.039
784.246	499.469
785.37	499.108
786.492	499.165
787.614	499.397
788.737	499.583
789.858	499.346
790.979	499.135
792.101	498.839
793.222	498.33
794.342	497.456
795.463	496.176
796.583	493.923
797.702	491.801
798.822	490.137
799.942	487.932
801.06	484.552
802.179	480.363
803.297	477.138
804.415	474.616
805.533	472.448
806.651	470.876
807.768	470.144
808.885	471.123
810.001	472.539
811.118	473.766
812.233	475.018
813.349	475.905
814.464	476.488
815.58	477.722
816.695	478.855
817.809	479.349
818.924	478.893
820.038	479.266
821.152	478.828
822.265	476.995
823.378	474.785
824.491	472.736
825.604	471.048
826.716	469.464
827.828	468.322
828.94	467.611
830.051	467.366
831.162	467.522
832.273	467.903
833.383	468.352
834.494	469.171
835.604	470.339
836.714	470.857
837.823	470.855
838.932	470.192
840.041	469.123
841.15	467.614
842.258	465.872
843.366	463.796
844.474	461.593
845.581	458.926
846.688	456.344
847.795	453.881
848.901	451.735
850.008	450.053
851.115	448.79
852.22	447.743
853.325	447.092
854.43	446.903
855.536	447.135
856.64	448.095
857.745	449.456
858.848	450.283
859.952	450.618
861.055	450.115
862.158	448.971
863.261	447.108
864.364	445.024
865.466	443.224
866.568	442.344
867.67	441.812
868.771	441.061
869.873	439.927
870.973	438.26
872.074	436.867
873.174	436.783
874.274	436.476
875.374	436.091
876.473	435.983
877.572	436.088
878.671	436.142
879.77	435.566
880.868	434.448
881.966	432.966
883.064	430.838
884.161	428.686
885.258	428.046
886.356	425.959
887.452	423.62
888.548	420.464
889.645	417.746
890.74	416.092
891.836	416.119
892.931	417.134
894.025	419.092
895.12	421.772
896.214	425.146
897.308	429.267
898.402	429.772
899.495	428.041
900.588	428.561
901.681	430.804
902.774	428.405
903.866	428.587
904.958	428.577
906.05	420.878
907.142	422.896
908.233	425.304
909.324	425.286
910.414	423.879
911.504	422.203
912.594	420.515
913.684	418.658
914.774	416.372
915.863	414.095
916.952	412.855
918.041	411.803
919.129	410.812
920.217	410.01
921.305	409.135
922.392	408.249
923.48	407.447
924.567	406.701
925.653	406.193
926.74	405.44
927.825	403.916
928.911	401.222
929.997	398.013
931.082	394.5
932.166	391.571
933.252	388.838
934.336	386.409
935.42	383.81
936.504	381.3
937.587	379.425
938.671	378.277
939.753	377.358
940.836	376.338
941.919	375.294
943	374.908
944.082	375.337
945.163	376.497
946.245	377.798
947.326	379.094
948.406	380.195
949.487	381.053
950.567	381.582
951.647	381.949
952.727	382.265
953.805	382.334
954.885	381.895
955.964	380.062
957.042	379.221
958.12	378.78
959.198	378.048
960.276	376.582
961.352	374.921
962.43	373.914
963.507	373.65
964.583	374.859
965.659	373.605
966.735	372.722
967.81	372.24
968.885	372.241
969.961	372.783
971.036	374.18
972.11	372.322
973.184	372.252
974.258	372.468
975.332	372.932
976.405	373.797
977.478	374.97
978.551	376.546
979.624	378.279
980.696	379.984
981.767	381.299
982.839	382.58
983.911	383.657
984.982	384.487
986.052	384.887
987.123	384.693
988.193	383.801
989.263	382.661
990.333	381.163
991.403	379.435
992.471	377.782
993.54	376.126
994.608	374.267
995.677	372.114
996.745	369.91
997.812	368.447
998.88	367.172
999.947	365.439
1001.01	363.477
1002.08	361.795
1003.15	361.057
1004.21	359.28
1005.28	356.957
1006.34	353.744
1007.41	349.729
1008.47	347.215
1009.54	345.799
1010.6	344.666
1011.67	343.58
1012.73	342.692
1013.79	342.015
1014.86	341.61
1015.92	341.365
1016.98	341.388
1018.05	341.797
1019.11	343.302
1020.17	343.313
1021.23	343.251
1022.29	343.13
1023.35	342.888
1024.41	340.669
1025.47	336.602
1026.53	332.146
1027.59	329.53
1028.65	327.211
1029.71	325.41
1030.77	324.284
1031.83	326.482
1032.89	327.392
1033.95	327.844
1035	327.631
1036.06	327.326
1037.12	327.235
1038.18	328.295
1039.23	326.574
1040.29	323.774
1041.35	319.545
1042.4	324.187
1043.46	324.694
1044.51	324.55
1045.57	323.259
1046.62	321.769
1047.68	320.349
1048.73	319.062
1049.79	317.768
1050.84	316.462
1051.89	315.145
1052.95	313.667
1054	312.315
1055.05	311.09
1056.1	310.909
1057.16	310.922
1058.21	311.138
1059.26	311.479
1060.31	311.791
1061.36	312.184
1062.41	312.733
1063.46	313.467
1064.51	314.134
1065.56	314.551
1066.61	313.307
1067.66	312.758
1068.71	312.275
1069.76	311.835
1070.81	311.243
1071.85	310.009
1072.9	307.808
1073.95	305.693
1075	303.354
1076.04	301.452
1077.09	299.922
1078.14	298.664
1079.18	297.783
1080.23	297.787
1081.27	298.147
1082.32	298.717
1083.36	299.602
1084.41	300.72
1085.45	302.097
1086.5	303.717
1087.54	304.172
1088.59	303.548
1089.63	303.174
1090.67	302.679
1091.71	301.974
1092.76	300.542
1093.8	299.023
1094.84	297.31
1095.88	294.984
1096.92	294.322
1097.97	293.794
1099.01	293.199
1100.05	292.772
1101.09	292.702
1102.13	292.891
1103.17	294.278
1104.21	294.498
1105.25	294.554
1106.28	294.44
1107.32	294.765
1108.36	295.169
1109.4	295.428
1110.44	294.376
1111.47	292.692
1112.51	291.305
1113.55	291.064
1114.59	291.574
1115.62	290.898
1116.66	290.341
1117.69	289.693
1118.73	288.253
1119.77	285.878
1120.8	281.507
1121.84	279.827
1122.87	278.549
1123.9	278.113
1124.94	278.273
1125.97	279.086
1127	281.068
1128.04	283.363
1129.07	285.813
1130.1	287.897
1131.13	289.106
1132.17	289.671
1133.2	291.136
1134.23	293.013
1135.26	295.232
1136.29	297.395
1137.32	299.473
1138.35	300.345
1139.38	300.975
1140.41	301.469
1141.44	301.851
1142.47	302.215
1143.5	302.634
1144.53	302.82
1145.56	301.167
1146.59	303.195
1147.61	305.386
1148.64	308.681
1149.67	311.734
1150.7	314.812
1151.72	317.562
1152.75	320.51
1153.77	321.085
1154.8	319.638
1155.83	316.774
1156.85	313.381
1157.88	310.128
1158.9	306.509
1159.93	302.227
1160.95	294.809
1161.97	286.475
1163	282.163
1164.02	276.944
1165.04	273.425
1166.07	270.419
1167.09	272.305
1168.11	271.374
1169.13	271.364
1170.16	274.418
1171.18	275.157
1172.2	275.954
1173.22	277.035
1174.24	278.202
1175.26	279.412
1176.28	280.265
1177.3	280.827
1178.32	280.796
1179.34	280.603
1180.36	280.575
1181.38	281.285
1182.4	282.452
1183.41	283.439
1184.43	283.865
1185.45	284.044
1186.47	283.613
1187.48	282.276
1188.5	279.03
1189.52	276.858
1190.53	274.698
1191.55	272.539
1192.56	270.265
1193.58	268.091
1194.59	265.885
1195.61	263.756
1196.62	261.518
1197.64	259.208
1198.65	257.123
1199.67	255.891
1200.68	255.564
1201.69	256.19
1202.71	257.134
1203.72	258.091
1204.73	258.999
1205.74	259.906
1206.76	260.678
1207.77	261.466
1208.78	262.478
1209.79	263.373
1210.8	262.62
1211.81	261.042
1212.82	260.583
1213.83	260.226
1214.84	259.367
1215.85	258.831
1216.86	258.018
1217.87	257.142
1218.88	256.591
1219.88	256.107
1220.89	255.915
1221.9	255.805
1222.91	255.791
1223.92	255.868
1224.92	255.989
1225.93	256.2
1226.93	256.354
1227.94	256.697
1228.95	256.557
1229.95	254.777
1230.96	253.068
1231.96	251.305
1232.97	249.17
1233.97	247.025
1234.98	244.805
1235.98	241.622
1236.98	238.637
1237.99	236
1238.99	233.495
1239.99	231.269
1241	229.409
1242	227.725
1243	227.225
1244	227.115
1245	227.123
1246	227.075
1247.01	226.808
1248.01	226.643
1249.01	226.428
1250.01	226.305
1251.01	226.269
1252.01	226.256
1253	226.385
1254	226.492
1255	226.683
1256	226.908
1257	227.179
1258	227.512
1258.99	227.966
1259.99	228.082
1260.99	228.26
1261.99	228.437
1262.98	228.618
1263.98	228.682
1264.98	228.684
1265.97	228.598
1266.97	228.32
1267.96	228.014
1268.96	227.512
1269.95	226.89
1270.95	226.135
1271.94	225.359
1272.93	224.499
1273.93	222.725
1274.92	220.021
1275.91	218.537
1276.91	217.858
1277.9	217.824
1278.89	218.317
1279.88	219.28
1280.87	220.403
1281.87	222.033
1282.86	223.898
1283.85	225.541
1284.84	226.783
1285.83	227.707
1286.82	228
1287.81	227.517
1288.8	226.016
1289.79	223.469
1290.78	219.401
1291.76	217.716
1292.75	216.103
1293.74	214.829
1294.73	212.724
1295.72	211.155
1296.7	210.154
1297.69	209.521
1298.68	209.491
1299.66	209.818
1300.65	210.355
1301.64	211.124
1302.62	211.713
1303.61	212.953
1304.59	213.629
1305.58	213.667
1306.56	213.192
1307.55	212.713
1308.53	212.024
1309.51	210.917
1310.5	209.81
1311.48	208.793
1312.46	208.233
1313.45	208.687
1314.43	210.065
1315.41	212.171
1316.39	211.193
1317.38	212.945
1318.36	215.234
1319.34	219.385
1320.32	223.267
1321.3	226.818
1322.28	230.38
1323.26	233.198
1324.24	233.521
1325.22	233.243
1326.2	231.807
1327.18	227.853
1328.16	224.719
1329.13	219.36
1330.11	216.423
1331.09	214.141
1332.07	212.12
1333.04	210.199
1334.02	208.336
1335	207.143
1335.97	204.485
1336.95	202.262
1337.93	200.501
1338.9	198.902
1339.88	197.665
1340.85	196.652
1341.83	195.849
1342.8	195.42
1343.78	195.055
1344.75	194.951
1345.72	194.981
1346.7	195.086
1347.67	195.075
1348.65	195.108
1349.62	195.148
1350.59	195.019
1351.56	193.914
1352.53	192.724
1353.51	191.472
1354.48	190.168
1355.45	188.522
1356.42	186.967
1357.39	185.492
1358.36	184.114
1359.33	182.876
1360.3	182.32
1361.27	181.965
1362.24	181.799
1363.21	180.944
1364.18	180.372
1365.14	180.426
1366.11	180.94
1367.08	181.501
1368.05	182.295
1369.02	183.125
1369.98	184.018
1370.95	184.917
1371.92	185.764
1372.88	186.509
1373.85	187.073
1374.81	187.593
1375.78	187.934
1376.74	187.131
1377.71	186.454
1378.68	186.298
1379.64	186.36
1380.6	186.137
1381.57	185.7
1382.53	185.124
1383.49	184.908
1384.46	184.975
1385.42	183.89
1386.38	183.064
1387.34	182.098
1388.31	181.289
1389.27	180.93
1390.23	181.344
1391.19	181.785
1392.15	182.036
1393.11	181.991
1394.07	181.103
1395.03	179.983
1395.99	178.375
1396.95	176.771
1397.91	174.924
1398.87	173.432
1399.83	172.171
1400.79	171.602
1401.75	171.018
1402.7	170.663
1403.66	170.478
1404.62	170.373
1405.58	170.283
1406.53	170.323
1407.49	170.441
1408.45	170.639
1409.4	171.003
1410.36	171.38
1411.31	170.518
1412.27	168.737
1413.23	167.17
1414.18	165.841
1415.13	164.554
1416.09	163.703
1417.04	162.062
1418	162.208
1418.95	163.145
1419.9	164.339
1420.86	167.536
1421.81	168.127
1422.76	168.352
1423.71	168.453
1424.67	168.4
1425.62	168.191
1426.57	167.785
1427.52	166.025
1428.47	166.538
1429.42	168.514
1430.37	172.264
1431.32	173.962
1432.27	175.667
1433.22	175.064
1434.17	174.273
1435.12	174.23
1436.07	173.826
1437.02	173.018
1437.96	172.021
1438.91	171.015
1439.86	169.912
1440.81	168.64
1441.75	167.167
1442.7	165.685
1443.65	163.633
1444.59	162.883
1445.54	162.429
1446.49	162.272
1447.43	162.524
1448.38	162.805
1449.32	163.155
1450.27	162.683
1451.21	161.601
1452.15	160.59
1453.1	159.638
1454.04	158.879
1454.98	158.262
1455.93	157.884
1456.87	157.456
1457.81	157.083
1458.76	156.75
1459.7	156.451
1460.64	156.215
1461.58	155.977
1462.52	155.955
1463.46	155.603
1464.4	155.024
1465.34	154.601
1466.28	154.257
1467.22	154.078
1468.16	154.006
1469.1	154.143
1470.04	154.461
1470.98	155.579
1471.92	155.837
1472.86	154.994
1473.8	154.354
1474.73	154.045
1475.67	153.914
1476.61	154.071
1477.55	154.217
1478.48	155.068
1479.42	155.948
1480.36	156.863
1481.29	157.58
1482.23	158.125
1483.16	158.549
1484.1	158.827
1485.03	158.972
1485.97	158.61
1486.9	157.273
1487.84	156.043
1488.77	154.809
1489.7	153.598
1490.64	152.583
1491.57	151.785
1492.5	151.004
1493.44	150.913
1494.37	151.063
1495.3	151.047
1496.23	149.87
1497.16	149.473
1498.09	148.628
1499.02	147.637
1499.96	146.859
1500.89	146.61
1501.82	146.729
1502.75	147.235
1503.68	148.144
1504.61	150.008
1505.53	151.467
1506.46	153.106
1507.39	154.944
1508.32	156.988
1509.25	159.127
1510.18	161.282
1511.1	163.387
1512.03	165.438
1512.96	167.576
1513.88	169.643
1514.81	171.898
1515.74	174.344
1516.66	177.861
1517.59	180.663
1518.51	185.79
1519.44	191.717
1520.36	195.035
1521.29	199.419
1522.21	201.17
1523.14	202.362
1524.06	203.048
1524.98	200.916
1525.91	195.924
1526.83	194.88
1527.75	192.307
1528.68	189.524
1529.6	186.146
1530.52	182.536
1531.44	178.936
1532.36	175.505
1533.29	171.876
1534.21	168.271
1535.13	165.623
1536.05	163.119
1536.97	160.898
1537.89	158.698
1538.81	156.67
1539.73	154.992
1540.65	153.529
1541.56	152.714
1542.48	152.349
1543.4	152.18
1544.32	151.904
1545.24	152.229
1546.16	151.617
1547.07	151.052
1547.99	150.626
1548.91	150.435
1549.82	150.365
1550.74	150.289
1551.66	149.538
1552.57	147.953
1553.49	146.275
1554.4	144.476
1555.32	142.933
1556.23	142.012
1557.15	140.919
1558.06	139.919
1558.97	138.936
1559.89	138.195
1560.8	137.729
1561.71	137.415
1562.63	137.171
1563.54	136.984
1564.45	136.829
1565.36	135.913
1566.28	135.069
1567.19	134.427
1568.1	133.898
1569.01	133.476
1569.92	133.264
1570.83	133.063
1571.74	133.067
1572.65	133.139
1573.56	132.972
1574.47	132.588
1575.38	132.217
1576.29	131.965
1577.2	131.698
1578.11	131.387
1579.01	131.118
1579.92	130.984
1580.83	130.864
1581.74	130.739
1582.64	130.746
1583.55	130.873
1584.46	130.935
1585.36	130.847
1586.27	130.8
1587.18	130.84
1588.08	131.171
1588.99	131.882
1589.89	133.13
1590.8	134.095
1591.7	134.61
1592.61	134.981
1593.51	134.582
1594.41	134.158
1595.32	133.925
1596.22	133.716
1597.12	133.726
1598.03	133.894
1598.93	134.2
1599.83	134.54
1600.73	135.04
1601.64	135.573
1602.54	136.113
1603.44	136.564
1604.34	136.996
1605.24	137.466
1606.14	137.921
1607.04	138.455
1607.94	139.112
1608.84	139.244
1609.74	138.882
1610.64	138.264
1611.54	137.441
1612.44	136.417
1613.33	135.401
1614.23	134.867
1615.13	134.612
1616.03	134.416
1616.92	135.405
1617.82	135.378
1618.72	135.251
1619.61	135.077
1620.51	134.631
1621.41	134.135
1622.3	133.605
1623.2	133.294
1624.09	132.882
1624.99	132.59
1625.88	132.652
1626.78	132.6
1627.67	132.349
1628.57	132.279
1629.46	132.257
1630.35	132.093
1631.25	131.908
1632.14	131.606
1632.85	131.35
1633.78	131.593
1634.71	131.54
1635.64	131.356
1636.57	130.648
1637.5	130.066
1638.42	129.208
1639.35	128.213
1640.28	127.713
1641.21	127.86
1642.13	128.199
1643.06	128.797
1643.99	129.429
1644.91	130.154
1645.84	130.341
1646.77	130.795
1647.69	131.081
1648.62	131.017
1649.54	130.79
1650.47	130.319
1651.39	129.753
1652.32	129.251
1653.24	128.104
1654.17	126.894
1655.09	125.881
1656.01	124.882
1656.94	123.966
1657.86	123.23
1658.78	123.168
1659.71	122.998
1660.63	122.879
1661.55	122.697
1662.47	122.77
1663.4	123.398
1664.32	123.643
1665.24	124.156
1666.16	124.964
1667.08	125.066
1668	125.22
1668.92	125.305
1669.84	125.577
1670.76	125.975
1671.68	126.221
1672.6	126.538
1673.52	127.05
1674.44	126.97
1675.36	126.885
1676.28	126.584
1677.2	125.814
1678.12	125.044
1679.03	124.416
1679.95	124.223
1680.87	124.019
1681.79	123.653
1682.7	123.728
1683.62	123.598
1684.54	123.288
1685.45	122.668
1686.37	122.317
1687.29	122.038
1688.2	121.519
1689.12	121.393
1690.03	120.99
1690.95	120.511
1691.86	119.39
1692.78	118.621
1693.69	118.317
1694.61	118.022
1695.52	117.75
1696.43	117.717
1697.35	117.899
1698.26	117.91
1699.17	117.568
1700.09	116.934
1701	116.605
1701.91	115.899
1702.82	115.384
1703.74	114.873
1704.65	114.354
1705.56	113.581
1706.47	111.961
1707.38	111.718
1708.29	111.622
1709.2	111.597
1710.11	111.83
1711.02	112.05
1711.93	112.246
1712.84	111.831
1713.75	112.027
1714.66	112.225
1715.57	112.378
1716.48	112.044
1717.39	111.925
1718.3	111.371
1719.21	110.873
1720.11	110.111
1721.02	109.29
1721.93	108.446
1722.84	108.005
1723.74	107.491
1724.65	107.62
1725.56	108.392
1726.46	109.253
1727.37	109.737
1728.28	110.039
1729.18	110.32
1730.09	110.515
1730.99	110.808
1731.9	110.827
1732.8	110.762
1733.71	110.401
1734.61	110.363
1735.52	110.316
1736.42	110.054
1737.32	109.951
1738.23	109.993
1739.13	110.345
1740.03	109.945
1740.94	109.194
1741.84	108.529
1742.74	107.549
1743.64	106.72
1744.54	105.903
1745.45	105.299
1746.35	104.506
1747.25	104.35
1748.15	104.116
1749.05	103.965
1749.95	103.757
1750.85	103.838
1751.75	103.986
1752.65	104.165
1753.55	103.937
1754.45	104.119
1755.35	103.884
1756.25	103.051
1757.15	102.083
1758.05	101.135
1758.94	100.592
1759.84	99.8673
1760.74	98.5996
1761.64	97.8969
1762.53	97.4481
1763.43	97.2486
1764.33	97.9621
1765.23	100.17
1766.12	101.529
1767.02	102.566
1767.91	103.401
1768.81	104.45
1769.71	105.028
1770.6	105.128
1771.5	105.183
1772.39	105.799
1773.29	106.269
1774.18	106.525
1775.07	106.493
1775.97	106.129
1776.86	105.596
1777.76	104.456
1778.65	103.616
1779.54	102.888
1780.44	102.683
1781.33	102.369
1782.22	102.405
1783.11	102.294
1784.01	101.881
1784.9	101.55
1785.79	101.091
1786.68	100.8
1787.57	100.11
1788.46	99.7091
1789.35	99.7624
1790.24	99.9457
1791.13	99.4564
1792.02	98.7757
1792.91	97.8304
1793.8	96.7605
1794.69	95.6129
1795.58	94.7465
1796.47	94.2665
1797.36	93.9025
1798.25	93.9694
1799.14	94.5779
