Acq. time (s)=	15
Accumulations=	2
Range (cm-¹)=	600...1800
Windows=	2
Autofocus=	Off
AutoExposure=	Off
Spike filter=	Multiple accum.
Delay time (s)=	1
Binning=	1
Readout mode=	Signal
DeNoise=	Standard
ICS correction=	Off
Dark correction=	Off
Inst. Process=	Off
Instrument=	XploRA
Detector=	Syncerity
Objective=	x20LWD
Grating=	1200 gr/mm
Filter=	25%
Laser (nm)=	785 
Slit (µm)=	100 
Hole (µm)=	300 
Laser pol=	None
Raman pol=	None
Output=	Camera
StageXY=	Marzhauser
StageZ=	
X (µm)=	6085.4
Y (µm)=	-364.1
Project=	
Sample=	
Site=	
Title=	Cmm1 s-m
Remark=	
Date=	22.07.2022 06:31
Acquired=	22.07.2022 06:31:43
600.839	2330.55
602.009	2365.44
603.178	2388
604.347	2405.87
605.516	2420.81
606.684	2432.89
607.852	2442.44
609.02	2451.07
610.187	2459.54
611.355	2468.06
612.521	2476.96
613.688	2487.01
614.854	2497.08
616.02	2506.48
617.185	2515.18
618.351	2523.2
619.516	2530.45
620.681	2537
621.846	2542.54
623.009	2546.95
624.174	2549.91
625.337	2552.43
626.501	2554.2
627.664	2555.25
628.826	2554.85
629.988	2553.73
631.151	2551.81
632.313	2551.66
633.474	2551.17
634.635	2550.29
635.797	2548.93
636.958	2545.12
638.117	2539.55
639.278	2532.83
640.437	2525.8
641.597	2519.39
642.756	2513.33
643.915	2507.72
645.074	2502.43
646.233	2497.87
647.391	2494.35
648.548	2491.53
649.706	2489.85
650.863	2488.27
652.02	2486.56
653.176	2484.8
654.333	2487.52
655.489	2490.29
656.645	2492.01
657.8	2493.52
658.955	2495.08
660.11	2496.06
661.264	2497.92
662.419	2503.7
663.573	2504.71
664.727	2502.31
665.88	2499.31
667.033	2496.66
668.186	2494.97
669.338	2494.03
670.491	2493.41
671.643	2493.19
672.794	2494.36
673.945	2494.73
675.096	2494.19
676.247	2493.81
677.398	2495.69
678.548	2497.68
679.698	2499.14
680.847	2499.8
681.997	2498.36
683.146	2496.01
684.294	2492.41
685.443	2486.36
686.591	2479.04
687.739	2473.18
688.887	2467.84
690.034	2461.5
691.181	2457.64
692.328	2455.81
693.474	2454.91
694.62	2454.59
695.766	2455.04
696.911	2456.15
698.057	2457.86
699.202	2460.31
700.346	2463.22
701.49	2466.53
702.635	2469.85
703.779	2473.74
704.922	2476.19
706.065	2471.33
707.208	2462.64
708.351	2451.33
709.493	2439.22
710.635	2426.82
711.776	2414.38
712.918	2402.06
714.059	2390.38
715.2	2379.4
716.341	2368.92
717.481	2374.23
718.621	2369.42
719.761	2365.98
720.9	2363.47
722.04	2361.23
723.178	2358.93
724.317	2357.07
725.455	2356.08
726.594	2355.32
727.731	2354.18
728.868	2353.49
730.005	2355.14
731.142	2360.34
732.279	2367.29
733.415	2375.35
734.551	2382.65
735.686	2390.39
736.822	2399.83
737.957	2409.13
739.092	2415.73
740.226	2421.09
741.36	2424.9
742.495	2426.97
743.628	2426.95
744.762	2419.84
745.895	2411.41
747.027	2402.37
748.16	2392.85
749.292	2383.06
750.423	2372.59
751.555	2361.5
752.686	2349.9
753.817	2337.72
754.949	2324.84
756.079	2311.24
757.209	2297.2
758.339	2282.88
759.469	2269.13
760.597	2256.02
761.727	2243.67
762.856	2232.54
763.984	2222.12
765.112	2212.26
766.24	2203.44
767.367	2195.4
768.494	2190.03
769.622	2186.15
770.749	2182.83
771.874	2178.75
773.001	2175.07
774.127	2171.21
775.253	2166.91
776.377	2162.17
777.503	2156.61
778.627	2150.57
779.751	2143.12
780.876	2135.3
782	2126.39
783.123	2116.94
784.246	2107.1
785.37	2097.36
786.492	2090.19
787.614	2085.38
788.737	2082.01
789.858	2077.66
790.979	2073.99
792.101	2072.74
793.222	2068.97
794.342	2062.3
795.463	2057.89
796.583	2054.12
797.702	2050.36
798.822	2046.29
799.942	2042.47
801.06	2038.56
802.179	2034.79
803.297	2031.5
804.415	2028.91
805.533	2026.38
806.651	2024.32
807.768	2022.88
808.885	2021.59
810.001	2020.32
811.118	2018.32
812.233	2014.33
813.349	2010.23
814.464	2005.46
815.58	2000.73
816.695	1996.23
817.809	1991.87
818.924	1987.78
820.038	1984
821.152	1980.65
822.265	1977.53
823.378	1974.94
824.491	1972.64
825.604	1970.86
826.716	1969.37
827.828	1968.12
828.94	1967.34
830.051	1967.01
831.162	1966.82
832.273	1966.92
833.383	1966.55
834.494	1964.81
835.604	1963.06
836.714	1961.11
837.823	1958.57
838.932	1956.53
840.041	1954.4
841.15	1952.3
842.258	1949.75
843.366	1946.86
844.474	1943.53
845.581	1939.83
846.688	1935.38
847.795	1930.73
848.901	1925.64
850.008	1920.18
851.115	1914.21
852.22	1907.78
853.325	1900.87
854.43	1893.5
855.536	1885.84
856.64	1877.84
857.745	1865.19
858.848	1856.23
859.952	1848.31
861.055	1843.74
862.158	1840.08
863.261	1837.29
864.364	1834.99
865.466	1832.87
866.568	1831.06
867.67	1829.63
868.771	1828.57
869.873	1827.24
870.973	1825.79
872.074	1823.17
873.174	1818.5
874.274	1812.55
875.374	1807.16
876.473	1801.53
877.572	1795.93
878.671	1789.84
879.77	1783.66
880.868	1777.69
881.966	1772.06
883.064	1767.54
884.161	1762.8
885.258	1757.68
886.356	1754.17
887.452	1751.21
888.548	1749.08
889.645	1747.57
890.74	1746.79
891.836	1746.21
892.931	1745.93
894.025	1745.85
895.12	1746.16
896.214	1746.84
897.308	1748.21
898.402	1749.18
899.495	1750.07
900.588	1751.66
901.681	1753.74
902.774	1756.56
903.866	1759.21
904.958	1761.53
906.05	1763.84
907.142	1766.6
908.233	1770.77
909.324	1775.48
910.414	1779.37
911.504	1781.65
912.594	1782.01
913.684	1780.38
914.774	1777.65
915.863	1773.43
916.952	1767.81
918.041	1760.79
919.129	1751.3
920.217	1740.09
921.305	1728.95
922.392	1717.41
923.48	1705.32
924.567	1693.63
925.653	1683.14
926.74	1674.47
927.825	1668.58
928.911	1665.98
929.997	1664.18
931.082	1661.74
932.166	1659.41
933.252	1656.52
934.336	1653.2
935.42	1649.27
936.504	1644.67
937.587	1639.23
938.671	1633.09
939.753	1626.01
940.836	1617.92
941.919	1608.92
943	1599.07
944.082	1588.56
945.163	1582.17
946.245	1577.6
947.326	1576.79
948.406	1576.91
949.487	1577.11
950.567	1575.95
951.647	1574.37
952.727	1573.12
953.805	1571.84
954.885	1570.51
955.964	1567.67
957.042	1564.34
958.12	1560.37
959.198	1557.49
960.276	1555.02
961.352	1552.79
962.43	1550.85
963.507	1549.19
964.583	1547.78
965.659	1546.38
966.735	1545.23
967.81	1544.07
968.885	1543.18
969.961	1542.18
971.036	1541.6
972.11	1541.51
973.184	1542.18
974.258	1543.95
975.332	1546.66
976.405	1550.98
977.478	1556.5
978.551	1563
979.624	1570.17
980.696	1577.86
981.767	1584.84
982.839	1591.22
983.911	1596.52
984.982	1600.67
986.052	1603.07
987.123	1604.18
988.193	1604.3
989.263	1603.29
990.333	1601.17
991.403	1597.33
992.471	1591.58
993.54	1584.66
994.608	1576.46
995.677	1570.46
996.745	1568.05
997.812	1567.3
998.88	1569.04
999.947	1566.22
1001.01	1563.99
1002.08	1561.8
1003.15	1561.6
1004.21	1554.46
1005.28	1542.51
1006.34	1530.3
1007.41	1518.77
1008.47	1506.98
1009.54	1494.96
1010.6	1483.42
1011.67	1471.97
1012.73	1461.07
1013.79	1451.01
1014.86	1442.28
1015.92	1434.11
1016.98	1428.06
1018.05	1423.26
1019.11	1419.18
1020.17	1415.77
1021.23	1412.69
1022.29	1410.03
1023.35	1407.38
1024.41	1405.15
1025.47	1403.16
1026.53	1400.82
1027.59	1396.68
1028.65	1390.79
1029.71	1381.81
1030.77	1376.47
1031.83	1372.44
1032.89	1369.51
1033.95	1366.93
1035	1365.18
1036.06	1364.45
1037.12	1364.9
1038.18	1366.47
1039.23	1369.17
1040.29	1378.8
1041.35	1378.34
1042.4	1377.41
1043.46	1376.23
1044.51	1374.15
1045.57	1371.6
1046.62	1368.17
1047.68	1361.86
1048.73	1354.16
1049.79	1347.73
1050.84	1342.01
1051.89	1337.4
1052.95	1333.48
1054	1330.42
1055.05	1327.87
1056.1	1325.88
1057.16	1324.28
1058.21	1323.44
1059.26	1322.63
1060.31	1322.95
1061.36	1323.59
1062.41	1324.31
1063.46	1324.97
1064.51	1325.12
1065.56	1324.56
1066.61	1323.58
1067.66	1322.84
1068.71	1321.82
1069.76	1320.49
1070.81	1319.02
1071.85	1316.9
1072.9	1314.48
1073.95	1311.28
1075	1307.41
1076.04	1302.89
1077.09	1297.95
1078.14	1292.86
1079.18	1287.49
1080.23	1282.22
1081.27	1276.59
1082.32	1270.64
1083.36	1264.85
1084.41	1259.55
1085.45	1254.82
1086.5	1251.18
1087.54	1248.44
1088.59	1246.61
1089.63	1246.57
1090.67	1247.38
1091.71	1248.59
1092.76	1250
1093.8	1250.52
1094.84	1250.97
1095.88	1251.37
1096.92	1251.68
1097.97	1251.85
1099.01	1251.47
1100.05	1250.74
1101.09	1249.91
1102.13	1249.1
1103.17	1248.3
1104.21	1247.7
1105.25	1247.63
1106.28	1248.1
1107.32	1249.16
1108.36	1250.33
1109.4	1251.37
1110.44	1252.1
1111.47	1252.33
1112.51	1251.54
1113.55	1250.01
1114.59	1247.64
1115.62	1244.75
1116.66	1241.06
1117.69	1236.74
1118.73	1231.58
1119.77	1225.77
1120.8	1219.3
1121.84	1212.49
1122.87	1206.2
1123.9	1200.74
1124.94	1196.88
1125.97	1194.34
1127	1193.31
1128.04	1193.71
1129.07	1195.77
1130.1	1199.35
1131.13	1204.76
1132.17	1212.35
1133.2	1221.05
1134.23	1230.95
1135.26	1241.77
1136.29	1251.5
1137.32	1261.07
1138.35	1273.49
1139.38	1283.13
1140.41	1291.14
1141.44	1297.44
1142.47	1302.51
1143.5	1306.33
1144.53	1308.35
1145.56	1309.92
1146.59	1314.61
1147.61	1322.03
1148.64	1327.34
1149.67	1338.82
1150.7	1351.31
1151.72	1365.48
1152.75	1381.88
1153.77	1398.16
1154.8	1410.4
1155.83	1413.92
1156.85	1407.7
1157.88	1394.21
1158.9	1375.99
1159.93	1316.08
1160.95	1278.05
1161.97	1240.69
1163	1218.94
1164.02	1207.21
1165.04	1205.67
1166.07	1198.84
1167.09	1180.03
1168.11	1172.49
1169.13	1171.91
1170.16	1181.25
1171.18	1185.34
1172.2	1186.66
1173.22	1185.76
1174.24	1184.89
1175.26	1188.66
1176.28	1193.6
1177.3	1198.16
1178.32	1204.43
1179.34	1211.2
1180.36	1217.64
1181.38	1223.42
1182.4	1228.28
1183.41	1231.41
1184.43	1232.41
1185.45	1229.87
1186.47	1226.28
1187.48	1220.77
1188.5	1213.48
1189.52	1200.75
1190.53	1188.41
1191.55	1176.16
1192.56	1164.07
1193.58	1152.18
1194.59	1140.63
1195.61	1129.9
1196.62	1119.55
1197.64	1110.21
1198.65	1101.73
1199.67	1094.86
1200.68	1089.65
1201.69	1086.39
1202.71	1084.93
1203.72	1084.26
1204.73	1084.08
1205.74	1084.63
1206.76	1085.59
1207.77	1087.02
1208.78	1088.96
1209.79	1091.31
1210.8	1093.9
1211.81	1096.63
1212.82	1099.4
1213.83	1102.27
1214.84	1104.66
1215.85	1106.82
1216.86	1109.06
1217.87	1111.41
1218.88	1113.68
1219.88	1115.73
1220.89	1117.24
1221.9	1117.85
1222.91	1116.17
1223.92	1113.46
1224.92	1109.81
1225.93	1107.54
1226.93	1103.6
1227.94	1095.96
1228.95	1085.31
1229.95	1071.55
1230.96	1063.51
1231.96	1057.53
1232.97	1053.5
1233.97	1050.07
1234.98	1046.89
1235.98	1044.66
1236.98	1034.37
1237.99	1019.23
1238.99	1004.32
1239.99	988.683
1241	979.354
1242	972.959
1243	968.617
1244	965.888
1245	964.156
1246	963.073
1247.01	962.188
1248.01	961.419
1249.01	960.672
1250.01	960.259
1251.01	959.897
1252.01	960.355
1253	960.977
1254	961.952
1255	963.106
1256	964.683
1257	966.138
1258	967.271
1258.99	968.01
1259.99	967.557
1260.99	966.819
1261.99	964.059
1262.98	960.622
1263.98	956.817
1264.98	952.749
1265.97	948.678
1266.97	945.452
1267.96	941.686
1268.96	937.836
1269.95	933.821
1270.95	930.28
1271.94	927.242
1272.93	924.849
1273.93	923.806
1274.92	924.175
1275.91	926.044
1276.91	928.936
1277.9	932.277
1278.89	935.848
1279.88	938.493
1280.87	941.399
1281.87	945.525
1282.86	950.434
1283.85	955.235
1284.84	958.064
1285.83	960.308
1286.82	959.548
1287.81	955.683
1288.8	950.401
1289.79	943.985
1290.78	936.312
1291.76	928.394
1292.75	920.327
1293.74	911.914
1294.73	903.906
1295.72	898.344
1296.7	898.16
1297.69	900.083
1298.68	899.007
1299.66	898.416
1300.65	897.638
1301.64	898.592
1302.62	899.604
1303.61	900.52
1304.59	900.961
1305.58	900.731
1306.56	900.087
1307.55	898.042
1308.53	895.017
1309.51	891.659
1310.5	888.221
1311.48	886.979
1312.46	886.459
1313.45	887.566
1314.43	881.898
1315.41	888.717
1316.39	894.565
1317.38	904.112
1318.36	917.279
1319.34	929.3
1320.32	943.775
1321.3	960.763
1322.28	973.805
1323.26	986.938
1324.24	997.964
1325.22	998.443
1326.2	1000.46
1327.18	991.474
1328.16	982.815
1329.13	959.631
1330.11	941.978
1331.09	921.828
1332.07	902.24
1333.04	883.452
1334.02	867.457
1335	852.65
1335.97	853.485
1336.95	844.785
1337.93	837.414
1338.9	831.276
1339.88	826.833
1340.85	825.772
1341.83	825.149
1342.8	823.804
1343.78	822.587
1344.75	822.316
1345.72	822.219
1346.7	822.198
1347.67	822.198
1348.65	821.172
1349.62	819.111
1350.59	816.544
1351.56	814.391
1352.53	812.142
1353.51	810.483
1354.48	807.939
1355.45	804.968
1356.42	801.502
1357.39	797.715
1358.36	793.974
1359.33	790.154
1360.3	786.528
1361.27	783.249
1362.24	780.724
1363.21	778.551
1364.18	777.221
1365.14	776.291
1366.11	776.26
1367.08	776.852
1368.05	777.964
1369.02	779.398
1369.98	781.063
1370.95	782.66
1371.92	784.137
1372.88	785.612
1373.85	786.603
1374.81	787.684
1375.78	788.355
1376.74	788.817
1377.71	788.654
1378.68	788.051
1379.64	786.392
1380.6	783.883
1381.57	781.586
1382.53	780.42
1383.49	779.81
1384.46	780.013
1385.42	781.426
1386.38	785.151
1387.34	781.897
1388.31	776.892
1389.27	769.458
1390.23	760.331
1391.19	748.301
1392.15	739.142
1393.11	734.726
1394.07	738.16
1395.03	746.537
1395.99	756.391
1396.95	759.105
1397.91	759.852
1398.87	749.773
1399.83	740.642
1400.79	729.348
1401.75	726.212
1402.7	720.695
1403.66	717.521
1404.62	714.886
1405.58	711.987
1406.53	705.923
1407.49	702.288
1408.45	699.744
1409.4	697.613
1410.36	695.778
1411.31	694.24
1412.27	692.807
1413.23	691.688
1414.18	690.807
1415.13	690.194
1416.09	689.822
1417.04	689.579
1418	689.479
1418.95	689.602
1419.9	689.495
1420.86	689.786
1421.81	690.291
1422.76	691.251
1423.71	692.959
1424.67	696.071
1425.62	700.303
1426.57	706.195
1427.52	712.398
1428.47	718.396
1429.42	723.233
1430.37	727.429
1431.32	731.002
1432.27	734.069
1433.22	736.766
1434.17	739.663
1435.12	741.817
1436.07	743.366
1437.02	743.667
1437.96	741.649
1438.91	737.691
1439.86	732.895
1440.81	727.514
1441.75	722.328
1442.7	717.144
1443.65	712.056
1444.59	706.964
1445.54	701.853
1446.49	696.657
1447.43	691.8
1448.38	692.52
1449.32	689.571
1450.27	686.762
1451.21	684.083
1452.15	682.52
1453.1	683.163
1454.04	684.317
1454.98	682.555
1455.93	679.726
1456.87	676.222
1457.81	672.684
1458.76	669.233
1459.7	665.834
1460.64	662.943
1461.58	662.19
1462.52	662.233
1463.46	661.869
1464.4	658.515
1465.34	653.568
1466.28	650.136
1467.22	647.234
1468.16	644.884
1469.1	642.755
1470.04	641.13
1470.98	639.79
1471.92	639.072
1472.86	638.851
1473.8	639.077
1474.73	639.469
1475.67	639.768
1476.61	638.546
1477.55	636.914
1478.48	633.706
1479.42	634.176
1480.36	636.374
1481.29	639.88
1482.23	646.154
1483.16	650.158
1484.1	652.607
1485.03	653.726
1485.97	654.444
1486.9	654.776
1487.84	654.839
1488.77	654.84
1489.7	654.509
1490.64	654.146
1491.57	653.619
1492.5	652.837
1493.44	651.85
1494.37	650.395
1495.3	648.808
1496.23	646.888
1497.16	644.753
1498.09	642.332
1499.02	639.706
1499.96	637.116
1500.89	634.529
1501.82	632.5
1502.75	631.1
1503.68	630.993
1504.61	632.111
1505.53	634.572
1506.46	638.477
1507.39	643.898
1508.32	650.95
1509.25	659.633
1510.18	669.834
1511.1	681.552
1512.03	695.187
1512.96	710.087
1513.88	726.092
1514.81	742.275
1515.74	759.214
1516.66	776.185
1517.59	792.952
1518.51	809.59
1519.44	825.15
1520.36	839.412
1521.29	851.821
1522.21	861.548
1523.14	868.492
1524.06	872.279
1524.98	872.622
1525.91	868.448
1526.83	863.969
1527.75	858.341
1528.68	851.152
1529.6	842.199
1530.52	832.447
1531.44	821.717
1532.36	809.96
1533.29	796.937
1534.21	782.765
1535.13	766.932
1536.05	750.165
1536.97	732.539
1537.89	715.179
1538.81	697.925
1539.73	682.64
1540.65	667.899
1541.56	655.103
1542.48	645.466
1543.4	639.029
1544.32	634.803
1545.24	632.524
1546.16	632.507
1547.07	633.039
1547.99	633.798
1548.91	633.168
1549.82	631.76
1550.74	629.334
1551.66	625.692
1552.57	620.481
1553.49	613.867
1554.4	606.685
1555.32	600.041
1556.23	589.979
1557.15	582.77
1558.06	576.957
1558.97	571.797
1559.89	566.811
1560.8	561.396
1561.71	556.134
1562.63	551.368
1563.54	546.696
1564.45	542.134
1565.36	537.897
1566.28	533.771
1567.19	529.837
1568.1	526.351
1569.01	523.048
1569.92	520.105
1570.83	517.632
1571.74	515.411
1572.65	513.786
1573.56	512.37
1574.47	511.058
1575.38	510.22
1576.29	509.451
1577.2	508.729
1578.11	508.002
1579.01	507.089
1579.92	505.812
1580.83	504.352
1581.74	502.693
1582.64	500.945
1583.55	499.246
1584.46	497.185
1585.36	495.097
1586.27	493.067
1587.18	491.42
1588.08	489.652
1588.99	488.357
1589.89	486.609
1590.8	485.101
1591.7	484.034
1592.61	483.11
1593.51	483.074
1594.41	483.225
1595.32	483.444
1596.22	484.023
1597.12	484.357
1598.03	485.143
1598.93	486.827
1599.83	488.898
1600.73	491.359
1601.64	493.512
1602.54	494.905
1603.44	495.51
1604.34	495.369
1605.24	494.9
1606.14	494.093
1607.04	492.592
1607.94	490.753
1608.84	488.422
1609.74	485.663
1610.64	482.883
1611.54	479.902
1612.44	477.098
1613.33	473.965
1614.23	470.642
1615.13	467.52
1616.03	463.941
1616.92	460.867
1617.82	457.592
1618.72	454.91
1619.61	453.074
1620.51	451.285
1621.41	449.424
1622.3	447.573
1623.2	446.341
1624.09	445.787
1624.99	445.227
1625.88	444.334
1626.78	442.896
1627.67	441.468
1628.57	440.762
1629.46	440.072
1630.35	439.018
1631.25	437.908
1632.14	436.345
1632.85	435.05
1633.78	433.777
1634.71	432.725
1635.64	431.869
1636.57	430.681
1637.5	430.558
1638.42	430.784
1639.35	431.513
1640.28	432.216
1641.21	433.174
1642.13	433.656
1643.06	433.564
1643.99	433.553
1644.91	431.95
1645.84	431.648
1646.77	431.813
1647.69	432.176
1648.62	431.605
1649.54	430.241
1650.47	428.388
1651.39	426.897
1652.32	425.653
1653.24	424.611
1654.17	423.92
1655.09	422.957
1656.01	422.28
1656.94	421.911
1657.86	421.793
1658.78	421.125
1659.71	420.468
1660.63	419.908
1661.55	419.643
1662.47	419.968
1663.4	419.891
1664.32	420.269
1665.24	420.583
1666.16	420.191
1667.08	419.673
1668	418.808
1668.92	417.435
1669.84	414.867
1670.76	411.224
1671.68	408.403
1672.6	405.596
1673.52	402.447
1674.44	399.557
1675.36	397.045
1676.28	394.163
1677.2	392.301
1678.12	392.326
1679.03	393.243
1679.95	394.068
1680.87	394.403
1681.79	395.732
1682.7	397.937
1683.62	399.791
1684.54	400.995
1685.45	402.203
1686.37	407.979
1687.29	405.663
1688.2	400.82
1689.12	394.005
1690.03	389.788
1690.95	384.124
1691.86	380.866
1692.78	377.698
1693.69	375.885
1694.61	377.456
1695.52	377.653
1696.43	377.346
1697.35	377.747
1698.26	378.651
1699.17	379.656
1700.09	376.815
1701	376.24
1701.91	376.399
1702.82	376.937
1703.74	376.802
1704.65	377.091
1705.56	377.053
1706.47	376.536
1707.38	376.384
1708.29	376.907
1709.2	376.502
1710.11	376.384
1711.02	375.656
1711.93	375.722
1712.84	374.924
1713.75	373.456
1714.66	372.098
1715.57	370.354
1716.48	368.26
1717.39	365.105
1718.3	362.844
1719.21	361.502
1720.11	360.791
1721.02	360.107
1721.93	359.028
1722.84	359.333
1723.74	359.146
1724.65	359.336
1725.56	358.805
1726.46	358.52
1727.37	358.24
1728.28	358.038
1729.18	358.385
1730.09	358.495
1730.99	357.629
1731.9	358.448
1732.8	359.137
1733.71	359.323
1734.61	359.328
1735.52	358.858
1736.42	357.621
1737.32	356.876
1738.23	355.316
1739.13	354.923
1740.03	355.123
1740.94	356.059
1741.84	355.982
1742.74	355.707
1743.64	355.764
1744.54	356.432
1745.45	355.98
1746.35	354.967
1747.25	353.534
1748.15	352.628
1749.05	351.952
1749.95	350.979
1750.85	350.48
1751.75	349.22
1752.65	348.041
1753.55	346.77
1754.45	345.042
1755.35	343.651
1756.25	342.5
1757.15	341.995
1758.05	341.398
1758.94	340.954
1759.84	339.799
1760.74	338.593
1761.64	337.926
1762.53	337.728
1763.43	336.072
1764.33	334.825
1765.23	333.414
1766.12	332.71
1767.02	331.901
1767.91	331.795
1768.81	332.724
1769.71	333.484
1770.6	334.205
1771.5	333.969
1772.39	333.386
1773.29	332.648
1774.18	332.187
1775.07	331.949
1775.97	331.688
1776.86	331.253
1777.76	331.138
1778.65	331.203
1779.54	330.458
1780.44	328.811
1781.33	327.281
1782.22	326.217
1783.11	325.103
1784.01	323.966
1784.9	323.948
1785.79	327.636
1786.68	327.373
1787.57	322.757
1788.46	320.472
1789.35	319.958
1790.24	319.836
1791.13	320.234
1792.02	320.732
1792.91	321.599
1793.8	318.365
1794.69	317.286
1795.58	314.614
1796.47	311.535
1797.36	309.161
1798.25	306.019
1799.14	305.455
