Acq. time (s)=	15
Accumulations=	2
Range (cm-¹)=	600...1800
Windows=	2
Autofocus=	Off
AutoExposure=	Off
Spike filter=	Multiple accum.
Delay time (s)=	1
Binning=	1
Readout mode=	Signal
DeNoise=	Standard
ICS correction=	Off
Dark correction=	Off
Inst. Process=	Off
Instrument=	XploRA
Detector=	Syncerity
Objective=	x20LWD
Grating=	1200 gr/mm
Filter=	25%
Laser (nm)=	785 
Slit (µm)=	100 
Hole (µm)=	300 
Laser pol=	None
Raman pol=	None
Output=	Camera
StageXY=	Marzhauser
StageZ=	
X (µm)=	230.3
Y (µm)=	2079.5
Project=	
Sample=	
Site=	
Title=	Cmm1 s-m
Remark=	
Date=	22.07.2022 06:21
Acquired=	22.07.2022 06:21:12
600.839	887.285
602.009	893.877
603.178	901.086
604.347	907.624
605.516	913.604
606.684	918.063
607.852	922.841
609.02	927.535
610.187	931.302
611.355	934.702
612.521	937.786
613.688	940.444
614.854	942.856
616.02	944.966
617.185	946.872
618.351	948.591
619.516	950.138
620.681	951.589
621.846	952.932
623.009	954.106
624.174	955.213
625.337	956.36
626.501	957.612
627.664	959.157
628.826	960.235
629.988	960.087
631.151	958.518
632.313	957.193
633.474	955.728
634.635	955.267
635.797	955.157
636.958	952.7
638.117	950.293
639.278	948.717
640.437	947.899
641.597	947.521
642.756	947.681
643.915	948.026
645.074	948.338
646.233	947.572
647.391	948.822
648.548	953.392
649.706	954.512
650.863	956.749
652.02	955.713
653.176	952.965
654.333	950.291
655.489	947.872
656.645	946.585
657.8	945.587
658.955	944.789
660.11	943.447
661.264	942.471
662.419	941.635
663.573	941.283
664.727	941.48
665.88	942.278
667.033	943.94
668.186	946.349
669.338	949.182
670.491	952.677
671.643	956.777
672.794	961.357
673.945	965.663
675.096	969.635
676.247	973.426
677.398	976.547
678.548	978.636
679.698	979.633
680.847	978.025
681.997	978.214
683.146	978.212
684.294	976.259
685.443	973.942
686.591	971.982
687.739	969.826
688.887	967.605
690.034	965.318
691.181	962.962
692.328	960.625
693.474	958.348
694.62	955.808
695.766	953.143
696.911	950.551
698.057	948.293
699.202	946.407
700.346	944.14
701.49	941.803
702.635	939.931
703.779	938.533
704.922	937.687
706.065	937.064
707.208	936.539
708.351	936.167
709.493	936.208
710.635	936.561
711.776	936.702
712.918	936.143
714.059	934.771
715.2	932.308
716.341	929.102
717.481	925.535
718.621	921.726
719.761	918.288
720.9	915.18
722.04	911.555
723.178	908.233
724.317	905.349
725.455	903.107
726.594	902.013
727.731	901.409
728.868	901.419
730.005	902.112
731.142	903.626
732.279	905.795
733.415	908.521
734.551	911.643
735.686	915.367
736.822	919.129
737.957	921.758
739.092	923.561
740.226	924.435
741.36	924.559
742.495	924.073
743.628	922.8
744.762	920.795
745.895	916.95
747.027	913.33
748.16	911.465
749.292	910.545
750.423	910.131
751.555	909.358
752.686	907.781
753.817	906.362
754.949	904.632
756.079	900.904
757.209	896.403
758.339	887.819
759.469	881.498
760.597	871.808
761.727	863.11
762.856	854.74
763.984	847.977
765.112	845.003
766.24	841.801
767.367	838.935
768.494	836.117
769.622	837.775
770.749	840.729
771.874	839.783
773.001	838.66
774.127	836.524
775.253	832.908
776.377	828.917
777.503	826.503
778.627	824.482
779.751	822.675
780.876	821.227
782	819.955
783.123	819.032
784.246	818.341
785.37	818.194
786.492	818.266
787.614	818.835
788.737	818.192
789.858	816.341
790.979	812.578
792.101	810.447
793.222	806.985
794.342	803.43
795.463	799.962
796.583	796.465
797.702	793.612
798.822	791.332
799.942	790.181
801.06	790.233
802.179	790.829
803.297	790.184
804.415	789.135
805.533	786.764
806.651	784.065
807.768	781.131
808.885	778.254
810.001	775.672
811.118	773.06
812.233	770.563
813.349	768.16
814.464	766.057
815.58	763.923
816.695	762.165
817.809	760.807
818.924	761.596
820.038	762.373
821.152	761.919
822.265	761.138
823.378	760.033
824.491	758.56
825.604	756.818
826.716	754.939
827.828	752.919
828.94	750.205
830.051	749.91
831.162	750.295
832.273	750.436
833.383	750.574
834.494	750.859
835.604	751.292
836.714	751.537
837.823	751.385
838.932	750.595
840.041	747.897
841.15	746.849
842.258	747.374
843.366	747.971
844.474	747.892
845.581	746.805
846.688	744.647
847.795	741.87
848.901	739.818
850.008	737.608
851.115	735.708
852.22	733.859
853.325	732.108
854.43	729.293
855.536	726.59
856.64	724.006
857.745	723.056
858.848	722.366
859.952	721.808
861.055	720.738
862.158	719.505
863.261	718.13
864.364	716.883
865.466	715.505
866.568	713.866
867.67	711.154
868.771	708.513
869.873	705.758
870.973	703.326
872.074	699.277
873.174	695.37
874.274	693.236
875.374	693.436
876.473	690.653
877.572	688.313
878.671	685.167
879.77	681.325
880.868	680.265
881.966	679.841
883.064	679.8
884.161	680.123
885.258	681.15
886.356	682.504
887.452	684.021
888.548	685.343
889.645	682.812
890.74	681.929
891.836	679.429
892.931	677.449
894.025	675.852
895.12	674.707
896.214	673.895
897.308	673.332
898.402	673.033
899.495	672.978
900.588	673.152
901.681	673.554
902.774	674.197
903.866	675.063
904.958	675.953
906.05	676.94
907.142	678.006
908.233	679.435
909.324	680.767
910.414	681.873
911.504	681.991
912.594	681.888
913.684	681.25
914.774	680.206
915.863	678.324
916.952	676.011
918.041	673.304
919.129	670.162
920.217	666.777
921.305	663.019
922.392	659.339
923.48	655.737
924.567	652.268
925.653	648.842
926.74	646.353
927.825	644.189
928.911	642.014
929.997	640.031
931.082	637.858
932.166	635.139
933.252	632.525
934.336	629.831
935.42	627.204
936.504	624.775
937.587	622.904
938.671	621.261
939.753	620.14
940.836	619.647
941.919	620.026
943	621.705
944.082	621.089
945.163	619.778
946.245	617.951
947.326	616.02
948.406	613.782
949.487	611.23
950.567	608.011
951.647	604.868
952.727	601.955
953.805	599.643
954.885	597.943
955.964	596.842
957.042	596.622
958.12	596.904
959.198	597.625
960.276	598.581
961.352	599.101
962.43	599.856
963.507	600.668
964.583	601.333
965.659	601.765
966.735	601.751
967.81	601.121
968.885	599.864
969.961	598.471
971.036	596.951
972.11	595.803
973.184	594.78
974.258	595.126
975.332	595.739
976.405	596.596
977.478	597.673
978.551	598.685
979.624	599.824
980.696	601.447
981.767	603.205
982.839	604.915
983.911	606.647
984.982	607.899
986.052	608.399
987.123	608.82
988.193	609.112
989.263	609.32
990.333	609.776
991.403	610.429
992.471	610.904
993.54	610.223
994.608	608.947
995.677	607.501
996.745	606.1
997.812	604.55
998.88	602.586
999.947	598.896
1001.01	594.894
1002.08	590.801
1003.15	586.974
1004.21	583.187
1005.28	579.595
1006.34	576.193
1007.41	572.912
1008.47	570.171
1009.54	567.652
1010.6	565.89
1011.67	564.151
1012.73	562.147
1013.79	559.727
1014.86	555.703
1015.92	551.695
1016.98	547.732
1018.05	544.681
1019.11	542.071
1020.17	539.772
1021.23	538.028
1022.29	536.83
1023.35	535.491
1024.41	533.349
1025.47	530.283
1026.53	526.811
1027.59	523.084
1028.65	519.389
1029.71	517.165
1030.77	515.81
1031.83	514.759
1032.89	514.05
1033.95	513.458
1035	513.183
1036.06	513.068
1037.12	513.253
1038.18	513.831
1039.23	514.625
1040.29	515.707
1041.35	517.015
1042.4	518.662
1043.46	520.252
1044.51	519.468
1045.57	518.297
1046.62	516.547
1047.68	514.75
1048.73	513.002
1049.79	511.281
1050.84	509.879
1051.89	508.497
1052.95	507.538
1054	506.406
1055.05	504.992
1056.1	502.613
1057.16	495.93
1058.21	495.345
1059.26	495.441
1060.31	495.991
1061.36	496.987
1062.41	498.516
1063.46	500.061
1064.51	501.38
1065.56	501.796
1066.61	501.746
1067.66	500.948
1068.71	499.237
1069.76	496.522
1070.81	489.192
1071.85	485.279
1072.9	481.669
1073.95	478.557
1075	476.135
1076.04	474.495
1077.09	479.891
1078.14	481.626
1079.18	482.999
1080.23	484.119
1081.27	485.077
1082.32	486.01
1083.36	486.772
1084.41	487.794
1085.45	488.095
1086.5	485.116
1087.54	481.926
1088.59	480.033
1089.63	478.152
1090.67	475.88
1091.71	472.986
1092.76	470.13
1093.8	467.382
1094.84	466.063
1095.88	466.181
1096.92	467.016
1097.97	468.083
1099.01	469.181
1100.05	470.47
1101.09	471.447
1102.13	472.346
1103.17	472.86
1104.21	472.714
1105.25	472.109
1106.28	471.17
1107.32	470.294
1108.36	470.379
1109.4	470.635
1110.44	470.303
1111.47	469.143
1112.51	467.75
1113.55	466.178
1114.59	464.516
1115.62	462.64
1116.66	460.72
1117.69	458.792
1118.73	456.961
1119.77	455.715
1120.8	454.709
1121.84	453.448
1122.87	451.5
1123.9	449.597
1124.94	447.962
1125.97	446.767
1127	446.003
1128.04	445.675
1129.07	445.727
1130.1	445.891
1131.13	446.404
1132.17	447.203
1133.2	448.55
1134.23	449.083
1135.26	451.97
1136.29	455.681
1137.32	461.03
1138.35	467.592
1139.38	474.706
1140.41	481.465
1141.44	486.696
1142.47	490.336
1143.5	492.319
1144.53	493.333
1145.56	493.433
1146.59	492.639
1147.61	488.114
1148.64	487.978
1149.67	493.373
1150.7	497.342
1151.72	498.919
1152.75	505.232
1153.77	512.884
1154.8	527.476
1155.83	529.863
1156.85	524.458
1157.88	506.48
1158.9	493.415
1159.93	481.716
1160.95	471.864
1161.97	463.689
1163	456.778
1164.02	449.275
1165.04	442.952
1166.07	438.212
1167.09	434.578
1168.11	432.21
1169.13	431.225
1170.16	431.818
1171.18	433.764
1172.2	437.447
1173.22	441.444
1174.24	445.51
1175.26	449.598
1176.28	451.864
1177.3	454.784
1178.32	459.096
1179.34	461.783
1180.36	463.828
1181.38	465.09
1182.4	463.76
1183.41	463.077
1184.43	461.627
1185.45	459.534
1186.47	455.704
1187.48	451.571
1188.5	447.291
1189.52	443.102
1190.53	439.105
1191.55	435.423
1192.56	431.975
1193.58	428.565
1194.59	425.184
1195.61	421.912
1196.62	418.758
1197.64	415.617
1198.65	412.652
1199.67	409.853
1200.68	407.281
1201.69	405.394
1202.71	403.975
1203.72	403.262
1204.73	403.93
1205.74	405.796
1206.76	406.466
1207.77	407.943
1208.78	409.579
1209.79	411.152
1210.8	412.704
1211.81	414.143
1212.82	415.353
1213.83	416.25
1214.84	417.087
1215.85	417.684
1216.86	418.276
1217.87	418.59
1218.88	418.743
1219.88	418.676
1220.89	418.327
1221.9	417.717
1222.91	416.778
1223.92	415.621
1224.92	413.641
1225.93	411.275
1226.93	408.65
1227.94	405.801
1228.95	402.846
1229.95	399.845
1230.96	397.758
1231.96	395.504
1232.97	393.371
1233.97	391.197
1234.98	389.13
1235.98	386.956
1236.98	384.216
1237.99	381.382
1238.99	378.442
1239.99	375.552
1241	373.001
1242	370.934
1243	368.837
1244	366.678
1245	364.531
1246	362.319
1247.01	359.813
1248.01	357.045
1249.01	354.386
1250.01	352.034
1251.01	350.029
1252.01	349.134
1253	348.377
1254	347.869
1255	347.788
1256	348.051
1257	348.902
1258	350.572
1258.99	352.898
1259.99	355.203
1260.99	357.415
1261.99	359.025
1262.98	360.314
1263.98	361.144
1264.98	361.498
1265.97	361.363
1266.97	360.863
1267.96	359.969
1268.96	358.795
1269.95	357.418
1270.95	355.499
1271.94	353.513
1272.93	351.762
1273.93	350.435
1274.92	349.795
1275.91	350.09
1276.91	350.867
1277.9	352.095
1278.89	353.858
1279.88	356.025
1280.87	358.64
1281.87	361.006
1282.86	362.965
1283.85	363.992
1284.84	364.224
1285.83	363.602
1286.82	362.083
1287.81	359.878
1288.8	356.806
1289.79	353.222
1290.78	348.714
1291.76	344.639
1292.75	341.23
1293.74	338.319
1294.73	335.943
1295.72	334.259
1296.7	333.265
1297.69	332.852
1298.68	333.218
1299.66	333.952
1300.65	336.082
1301.64	338.426
1302.62	340.932
1303.61	342.793
1304.59	343.878
1305.58	344.66
1306.56	344.986
1307.55	344.879
1308.53	343.301
1309.51	340.988
1310.5	339.899
1311.48	338.333
1312.46	335.54
1313.45	334.857
1314.43	332.056
1315.41	330.844
1316.39	331.168
1317.38	333.197
1318.36	333.232
1319.34	337.363
1320.32	343.154
1321.3	349.764
1322.28	357.104
1323.26	364.151
1324.24	372.602
1325.22	377.189
1326.2	380.604
1327.18	363.716
1328.16	358.723
1329.13	353.331
1330.11	347.796
1331.09	341.965
1332.07	336.051
1333.04	329.905
1334.02	323.754
1335	317.742
1335.97	312.336
1336.95	312.846
1337.93	310.974
1338.9	309.121
1339.88	308.654
1340.85	307.827
1341.83	306.946
1342.8	306.14
1343.78	305.492
1344.75	305.09
1345.72	305.036
1346.7	305.011
1347.67	305.177
1348.65	305.3
1349.62	305.368
1350.59	305.515
1351.56	305.501
1352.53	305.253
1353.51	304.784
1354.48	303.93
1355.45	302.58
1356.42	300.945
1357.39	298.802
1358.36	296.071
1359.33	293.025
1360.3	289.483
1361.27	286.075
1362.24	283.466
1363.21	281.518
1364.18	280.284
1365.14	279.679
1366.11	279.731
1367.08	280.498
1368.05	281.953
1369.02	283.968
1369.98	286.576
1370.95	289.444
1371.92	291.856
1372.88	293.949
1373.85	295.531
1374.81	296.082
1375.78	295.501
1376.74	295.45
1377.71	295.19
1378.68	294.017
1379.64	292.562
1380.6	291.137
1381.57	289.502
1382.53	287.644
1383.49	285.773
1384.46	283.932
1385.42	282.841
1386.38	282.537
1387.34	282.498
1388.31	282.533
1389.27	282.794
1390.23	282.975
1391.19	283.09
1392.15	283.142
1393.11	283.016
1394.07	282.863
1395.03	282.284
1395.99	281.423
1396.95	280.247
1397.91	278.909
1398.87	277.274
1399.83	275.565
1400.79	273.59
1401.75	271.608
1402.7	269.672
1403.66	267.896
1404.62	266.36
1405.58	264.863
1406.53	263.625
1407.49	262.572
1408.45	261.757
1409.4	261.148
1410.36	260.778
1411.31	260.568
1412.27	260.6
1413.23	260.744
1414.18	261.116
1415.13	261.69
1416.09	262.502
1417.04	263.419
1418	264.489
1418.95	265.641
1419.9	266.809
1420.86	267.867
1421.81	268.371
1422.76	269.072
1423.71	269.411
1424.67	269.165
1425.62	268.817
1426.57	268.48
1427.52	268.204
1428.47	268.204
1429.42	268.419
1430.37	268.862
1431.32	269.654
1432.27	270.563
1433.22	271.439
1434.17	273.22
1435.12	274.956
1436.07	276.677
1437.02	278.101
1437.96	277.999
1438.91	277.613
1439.86	276.91
1440.81	275.195
1441.75	273.328
1442.7	271.327
1443.65	269.261
1444.59	267.354
1445.54	265.474
1446.49	263.658
1447.43	261.843
1448.38	260.121
1449.32	258.422
1450.27	256.836
1451.21	255.296
1452.15	253.797
1453.1	252.367
1454.04	250.919
1454.98	249.474
1455.93	248.05
1456.87	246.723
1457.81	245.466
1458.76	244.316
1459.7	243.143
1460.64	242.217
1461.58	242.075
1462.52	242.04
1463.46	241.62
1464.4	241.549
1465.34	241.994
1466.28	243.773
1467.22	244.49
1468.16	245.1
1469.1	218.763
1470.04	229.571
1470.98	241.671
1471.92	248.766
1472.86	239.643
1473.8	235.252
1474.73	233.225
1475.67	231.022
1476.61	233.364
1477.55	234.922
1478.48	232.614
1479.42	233.98
1480.36	234.786
1481.29	239.162
1482.23	241.99
1483.16	242.956
1484.1	243.224
1485.03	243.391
1485.97	243.485
1486.9	243.423
1487.84	243.4
1488.77	243.321
1489.7	242.913
1490.64	242.063
1491.57	241.629
1492.5	240.671
1493.44	240.267
1494.37	238.822
1495.3	237.872
1496.23	237.321
1497.16	236.874
1498.09	237.113
1499.02	237.328
1499.96	238.735
1500.89	240.533
1501.82	241.112
1502.75	239.944
1503.68	238.871
1504.61	237.789
1505.53	236.561
1506.46	236.512
1507.39	237.966
1508.32	239.701
1509.25	241.054
1510.18	241.819
1511.1	244.37
1512.03	247.952
1512.96	252.456
1513.88	257.869
1514.81	263.859
1515.74	270.03
1516.66	276.134
1517.59	282.124
1518.51	288.03
1519.44	293.627
1520.36	298.931
1521.29	303.744
1522.21	307.962
1523.14	310.96
1524.06	312.8
1524.98	313.048
1525.91	312.184
1526.83	309.664
1527.75	307.376
1528.68	304.564
1529.6	300.607
1530.52	295.938
1531.44	290.906
1532.36	285.606
1533.29	280.276
1534.21	274.72
1535.13	269.381
1536.05	264.335
1536.97	259.788
1537.89	255.26
1538.81	250.844
1539.73	247.038
1540.65	243.889
1541.56	241.387
1542.48	239.441
1543.4	238.02
1544.32	236.903
1545.24	236.343
1546.16	235.83
1547.07	235.307
1547.99	234.574
1548.91	233.681
1549.82	232.744
1550.74	231.251
1551.66	229.274
1552.57	227.169
1553.49	225.075
1554.4	222.92
1555.32	220.746
1556.23	218.525
1557.15	216.402
1558.06	214.263
1558.97	212.147
1559.89	210.132
1560.8	208.236
1561.71	206.541
1562.63	204.893
1563.54	203.526
1564.45	202.294
1565.36	201.191
1566.28	200.262
1567.19	199.362
1568.1	198.437
1569.01	197.031
1569.92	195.717
1570.83	194.26
1571.74	193.132
1572.65	192.374
1573.56	192.006
1574.47	191.732
1575.38	191.503
1576.29	191.281
1577.2	190.936
1578.11	190.411
1579.01	189.61
1579.92	188.72
1580.83	187.729
1581.74	186.996
1582.64	186.612
1583.55	186.354
1584.46	186.148
1585.36	186.121
1586.27	186.51
1587.18	187.197
1588.08	188.305
1588.99	189.166
1589.89	189.744
1590.8	190.094
1591.7	190.358
1592.61	190.369
1593.51	190.045
1594.41	189.569
1595.32	189.267
1596.22	189.173
1597.12	188.932
1598.03	188.437
1598.93	187.052
1599.83	186.844
1600.73	188.109
1601.64	188.951
1602.54	189.796
1603.44	190.284
1604.34	190.454
1605.24	190.422
1606.14	190.273
1607.04	189.789
1607.94	189.031
1608.84	187.957
1609.74	185.798
1610.64	183.684
1611.54	182.503
1612.44	181.348
1613.33	180.211
1614.23	179.049
1615.13	177.904
1616.03	176.742
1616.92	175.537
1617.82	174.475
1618.72	173.203
1619.61	171.897
1620.51	170.621
1621.41	169.406
1622.3	168.255
1623.2	167.16
1624.09	166.186
1624.99	165.294
1625.88	164.718
1626.78	164.601
1627.67	164.756
1628.57	165.02
1629.46	165.313
1630.35	165.639
1631.25	165.941
1632.14	166.188
1632.85	166.429
1633.78	166.74
1634.71	166.806
1635.64	166.842
1636.57	166.783
1637.5	166.664
1638.42	166.521
1639.35	166.302
1640.28	166.042
1641.21	165.724
1642.13	165.359
1643.06	164.948
1643.99	164.475
1644.91	163.947
1645.84	163.442
1646.77	162.781
1647.69	162.021
1648.62	161.183
1649.54	160.315
1650.47	159.421
1651.39	158.497
1652.32	157.553
1653.24	156.583
1654.17	155.555
1655.09	154.615
1656.01	154.039
1656.94	153.405
1657.86	152.8
1658.78	152.2
1659.71	151.689
1660.63	151.194
1661.55	150.811
1662.47	150.527
1663.4	150.16
1664.32	149.857
1665.24	149.661
1666.16	149.951
1667.08	151.532
1668	153.022
1668.92	154.424
1669.84	155.478
1670.76	156.288
1671.68	156.785
1672.6	156.975
1673.52	156.86
1674.44	156.641
1675.36	155.867
1676.28	155.033
1677.2	154.126
1678.12	153.234
1679.03	152.354
1679.95	152.133
1680.87	151.855
1681.79	151.703
1682.7	151.833
1683.62	152.042
1684.54	152.246
1685.45	152.465
1686.37	152.597
1687.29	152.733
1688.2	152.721
1689.12	152.486
1690.03	152.171
1690.95	151.668
1691.86	151.095
1692.78	150.085
1693.69	149.168
1694.61	147.552
1695.52	145.885
1696.43	144.302
1697.35	142.75
1698.26	141.755
1699.17	140.824
1700.09	140.105
1701	139.574
1701.91	139.239
1702.82	138.967
1703.74	139.086
1704.65	139.642
1705.56	140.325
1706.47	141.025
1707.38	141.669
1708.29	142.283
1709.2	142.076
1710.11	141.916
1711.02	141.404
1711.93	140.826
1712.84	139.632
1713.75	138.362
1714.66	137.111
1715.57	135.917
1716.48	135.106
1717.39	134.302
1718.3	133.584
1719.21	132.977
1720.11	132.497
1721.02	132.133
1721.93	131.926
1722.84	131.794
1723.74	131.9
1724.65	132.038
1725.56	132.598
1726.46	133.142
1727.37	133.628
1728.28	133.971
1729.18	133.421
1730.09	132.563
1730.99	131.687
1731.9	130.846
1732.8	130.335
1733.71	130.248
1734.61	130.307
1735.52	130.879
1736.42	131.741
1737.32	132.718
1738.23	133.565
1739.13	133.497
1740.03	133.362
1740.94	132.8
1741.84	132.233
1742.74	131.675
1743.64	131.531
1744.54	131.565
1745.45	131.978
1746.35	132.825
1747.25	134.266
1748.15	134.466
1749.05	134.212
1749.95	133.524
1750.85	132.844
1751.75	132.132
1752.65	131.38
1753.55	130.559
1754.45	129.735
1755.35	128.991
1756.25	127.823
1757.15	126.732
1758.05	125.689
1758.94	124.737
1759.84	123.964
1760.74	123.28
1761.64	122.897
1762.53	123.204
1763.43	123.492
1764.33	124.185
1765.23	125.171
1766.12	126.192
1767.02	127.217
1767.91	128.208
1768.81	128.791
1769.71	129.244
1770.6	129.493
1771.5	129.465
1772.39	129.41
1773.29	128.564
1774.18	127.667
1775.07	126.664
1775.97	125.591
1776.86	124.583
1777.76	123.496
1778.65	122.96
1779.54	122.445
1780.44	122.034
1781.33	121.66
1782.22	121.416
1783.11	121.23
1784.01	121.145
1784.9	121.084
1785.79	121.081
1786.68	121.116
1787.57	121.14
1788.46	121.256
1789.35	121.153
1790.24	121.302
1791.13	121.378
1792.02	121.562
1792.91	121.86
1793.8	122.123
1794.69	122.358
1795.58	122.579
1796.47	122.74
1797.36	122.868
1798.25	122.692
1799.14	118.146
