Acq. time (s)=	15
Accumulations=	2
Range (cm-¹)=	600...1800
Windows=	2
Autofocus=	Off
AutoExposure=	Off
Spike filter=	Multiple accum.
Delay time (s)=	1
Binning=	1
Readout mode=	Signal
DeNoise=	Standard
ICS correction=	Off
Dark correction=	Off
Inst. Process=	Off
Instrument=	XploRA
Detector=	Syncerity
Objective=	x20LWD
Grating=	1200 gr/mm
Filter=	25%
Laser (nm)=	785 
Slit (µm)=	100 
Hole (µm)=	300 
Laser pol=	None
Raman pol=	None
Output=	Camera
StageXY=	Marzhauser
StageZ=	
X (µm)=	-7857
Y (µm)=	-4816.1
Project=	
Sample=	
Site=	
Title=	Cmm1 s-m
Remark=	
Date=	22.07.2022 06:43
Acquired=	22.07.2022 06:43:47
600.839	619.033
602.009	629.805
603.178	638.577
604.347	644.518
605.516	649.497
606.684	654.08
607.852	657.685
609.02	660.198
610.187	662.319
611.355	664.027
612.521	665.528
613.688	666.787
614.854	667.911
616.02	668.9
617.185	669.815
618.351	670.558
619.516	671.273
620.681	672.183
621.846	673.158
623.009	675.12
624.174	677.159
625.337	679.265
626.501	681.309
627.664	681.944
628.826	683.228
629.988	684.999
631.151	686.665
632.313	687.937
633.474	689.285
634.635	690.494
635.797	691.583
636.958	690.954
638.117	690.482
639.278	689.253
640.437	688.059
641.597	686.941
642.756	686.013
643.915	685.624
645.074	685.218
646.233	685.054
647.391	684.921
648.548	684.674
649.706	683.743
650.863	682.829
652.02	682.703
653.176	684.161
654.333	686.117
655.489	687.841
656.645	690.042
657.8	692.72
658.955	695.221
660.11	697.086
661.264	698.395
662.419	699.266
663.573	699.523
664.727	699.065
665.88	698.192
667.033	697
668.186	695.573
669.338	694.642
670.491	693.193
671.643	691.727
672.794	690.192
673.945	689.463
675.096	689.15
676.247	689.037
677.398	689.17
678.548	689.366
679.698	689.671
680.847	689.992
681.997	689.968
683.146	690.099
684.294	690.273
685.443	690.565
686.591	690.85
687.739	691.118
688.887	691.085
690.034	690.05
691.181	689.21
692.328	688.919
693.474	688.409
694.62	689.816
695.766	690.258
696.911	691.281
698.057	691.274
699.202	690.341
700.346	688.388
701.49	685.094
702.635	680.558
703.779	677.153
704.922	674.935
706.065	673.694
707.208	672.641
708.351	671.163
709.493	668.987
710.635	666.926
711.776	665.293
712.918	664.912
714.059	666.503
715.2	667.966
716.341	668.273
717.481	667.734
718.621	666.656
719.761	665.295
720.9	663.689
722.04	661.958
723.178	660.196
724.317	658.404
725.455	656.544
726.594	654.708
727.731	652.827
728.868	651.257
730.005	650.301
731.142	651.157
732.279	650.21
733.415	648.598
734.551	651.705
735.686	656.148
736.822	660.977
737.957	666.499
739.092	672.606
740.226	679.903
741.36	687.763
742.495	694.325
743.628	697.218
744.762	696.957
745.895	688.067
747.027	682.679
748.16	676.911
749.292	670.448
750.423	664.383
751.555	659.086
752.686	654.724
753.817	649.915
754.949	646.67
756.079	643.791
757.209	641.024
758.339	638.169
759.469	635.262
760.597	632.603
761.727	630.143
762.856	627.64
763.984	625.294
765.112	622.99
766.24	620.878
767.367	618.788
768.494	616.754
769.622	614.73
770.749	612.727
771.874	610.746
773.001	608.74
774.127	606.793
775.253	604.769
776.377	602.8
777.503	600.453
778.627	598.335
779.751	596.258
780.876	594.21
782	591.52
783.123	588.979
784.246	586.443
785.37	584.136
786.492	582.046
787.614	580.444
788.737	579.38
789.858	578.455
790.979	577.714
792.101	577.216
793.222	576.96
794.342	576.783
795.463	576.587
796.583	576.001
797.702	575.409
798.822	573.949
799.942	572.829
801.06	571.022
802.179	567.664
803.297	564.034
804.415	560.662
805.533	557.74
806.651	554.386
807.768	551.76
808.885	550.546
810.001	550.196
811.118	551.024
812.233	552.714
813.349	554.482
814.464	555.853
815.58	556.912
816.695	557.502
817.809	557.369
818.924	556.564
820.038	555.114
821.152	549.79
822.265	548.4
823.378	547.055
824.491	546.024
825.604	545.113
826.716	544.438
827.828	543.965
828.94	543.774
830.051	543.711
831.162	544.377
832.273	545.357
833.383	546.354
834.494	546.861
835.604	547.549
836.714	548.126
837.823	549.115
838.932	549.039
840.041	548.212
841.15	547.777
842.258	547.244
843.366	547.069
844.474	546.909
845.581	546.615
846.688	546.129
847.795	545.298
848.901	543.85
850.008	541.837
851.115	539.616
852.22	537.236
853.325	536.184
854.43	534.893
855.536	533.072
856.64	531.199
857.745	529.009
858.848	526.765
859.952	524.661
861.055	522.654
862.158	520.91
863.261	519.483
864.364	518.542
865.466	517.631
866.568	516.987
867.67	516.577
868.771	516.628
869.873	515.011
870.973	512.317
872.074	509.215
873.174	506.369
874.274	504.875
875.374	502.103
876.473	501.783
877.572	501.857
878.671	501.119
879.77	500.477
880.868	499.804
881.966	499.234
883.064	498.945
884.161	498.449
885.258	497.873
886.356	497.305
887.452	496.689
888.548	496.174
889.645	495.835
890.74	496.01
891.836	496.182
892.931	496.65
894.025	497.321
895.12	498.664
896.214	499.166
897.308	499.47
898.402	499.334
899.495	499.035
900.588	497.998
901.681	496.662
902.774	495.278
903.866	494.743
904.958	494.369
906.05	494.093
907.142	493.996
908.233	493.885
909.324	493.886
910.414	493.915
911.504	494.358
912.594	494.891
913.684	495.409
914.774	494.927
915.863	494.128
916.952	493.181
918.041	492.226
919.129	491.499
920.217	491.04
921.305	487.851
922.392	484.143
923.48	480.605
924.567	477.204
925.653	474.122
926.74	471.077
927.825	470.157
928.911	465.735
929.997	460.945
931.082	456.615
932.166	453.071
933.252	450.759
934.336	449.851
935.42	448.657
936.504	447.328
937.587	446.623
938.671	446.101
939.753	445.536
940.836	444.998
941.919	444.501
943	443.934
944.082	443.379
945.163	442.69
946.245	441.971
947.326	441.12
948.406	440.019
949.487	438.825
950.567	437.596
951.647	436.602
952.727	435.822
953.805	436.132
954.885	436.56
955.964	437.419
957.042	438.226
958.12	438.305
959.198	438.035
960.276	437.068
961.352	435.821
962.43	434.624
963.507	433.86
964.583	433.048
965.659	432.229
966.735	431.328
967.81	430.544
968.885	430.034
969.961	429.87
971.036	430.396
972.11	431.377
973.184	432.895
974.258	434.758
975.332	437.346
976.405	440.319
977.478	443.478
978.551	446.406
979.624	448.372
980.696	450.378
981.767	451.646
982.839	454.718
983.911	455.884
984.982	455.493
986.052	454.316
987.123	452.781
988.193	451.552
989.263	450.376
990.333	449.124
991.403	447.831
992.471	446.206
993.54	444.148
994.608	442.18
995.677	439.969
996.745	440.319
997.812	441.041
998.88	442.357
999.947	444.146
1001.01	446.405
1002.08	445.344
1003.15	443.375
1004.21	440.848
1005.28	437.38
1006.34	433.267
1007.41	426.026
1008.47	419.101
1009.54	413.221
1010.6	407.967
1011.67	404.003
1012.73	400.305
1013.79	396.437
1014.86	392.929
1015.92	392.328
1016.98	390.751
1018.05	389.374
1019.11	387.992
1020.17	386.953
1021.23	385.858
1022.29	384.591
1023.35	383.238
1024.41	383.037
1025.47	383.196
1026.53	382.984
1027.59	382.732
1028.65	382.202
1029.71	381.314
1030.77	380.013
1031.83	378.625
1032.89	377.182
1033.95	376.187
1035	375.582
1036.06	375.417
1037.12	377.406
1038.18	377.597
1039.23	377.713
1040.29	377.846
1041.35	378.012
1042.4	378.181
1043.46	378.264
1044.51	378.173
1045.57	378.07
1046.62	378.075
1047.68	377.966
1048.73	377.618
1049.79	376.961
1050.84	376.075
1051.89	374.34
1052.95	372.105
1054	370.082
1055.05	368.827
1056.1	368.128
1057.16	367.822
1058.21	367.876
1059.26	368.187
1060.31	368.725
1061.36	369.189
1062.41	369.305
1063.46	369.025
1064.51	368.445
1065.56	367.563
1066.61	367.241
1067.66	366.833
1068.71	366.259
1069.76	365.313
1070.81	363.972
1071.85	362.5
1072.9	360.849
1073.95	359.129
1075	357.601
1076.04	357.222
1077.09	355.503
1078.14	353.565
1079.18	351.596
1080.23	350.197
1081.27	349.003
1082.32	347.88
1083.36	346.152
1084.41	344.722
1085.45	343.612
1086.5	343.712
1087.54	344.811
1088.59	346.084
1089.63	346.996
1090.67	347.472
1091.71	347.486
1092.76	347.244
1093.8	346.767
1094.84	345.942
1095.88	342.906
1096.92	341.772
1097.97	340.657
1099.01	339.687
1100.05	338.787
1101.09	337.693
1102.13	336.727
1103.17	335.833
1104.21	335.259
1105.25	335.263
1106.28	335.516
1107.32	335.92
1108.36	336.452
1109.4	336.502
1110.44	336.575
1111.47	337.961
1112.51	338.827
1113.55	338.987
1114.59	338.701
1115.62	337.758
1116.66	336.507
1117.69	335.174
1118.73	333.704
1119.77	332.154
1120.8	330.66
1121.84	329.275
1122.87	327.907
1123.9	326.506
1124.94	325.183
1125.97	324.064
1127	323.132
1128.04	322.504
1129.07	323.033
1130.1	325.04
1131.13	327.529
1132.17	330.394
1133.2	333.089
1134.23	335.969
1135.26	338.591
1136.29	342.465
1137.32	347.072
1138.35	352.278
1139.38	355.549
1140.41	361.672
1141.44	366.076
1142.47	367.389
1143.5	364.633
1144.53	364.973
1145.56	362.752
1146.59	363.343
1147.61	364.904
1148.64	367.381
1149.67	370.518
1150.7	373.948
1151.72	377.9
1152.75	385.645
1153.77	387.252
1154.8	386.849
1155.83	385.012
1156.85	381.99
1157.88	378.218
1158.9	373.352
1159.93	361.947
1160.95	354.322
1161.97	347.047
1163	340.145
1164.02	333.691
1165.04	328.236
1166.07	322.738
1167.09	318.604
1168.11	315.592
1169.13	313.776
1170.16	313.432
1171.18	314.247
1172.2	316.145
1173.22	318.73
1174.24	321.096
1175.26	323.509
1176.28	325.832
1177.3	328.544
1178.32	331.259
1179.34	333.901
1180.36	336.477
1181.38	338.595
1182.4	340.604
1183.41	342.302
1184.43	344.22
1185.45	343.428
1186.47	339.984
1187.48	336.6
1188.5	333.254
1189.52	330.008
1190.53	326.884
1191.55	323.846
1192.56	320.946
1193.58	318.221
1194.59	315.554
1195.61	312.897
1196.62	309.734
1197.64	306.824
1198.65	303.818
1199.67	301.768
1200.68	298.728
1201.69	297.355
1202.71	296.159
1203.72	295.626
1204.73	295.563
1205.74	295.907
1206.76	296.622
1207.77	297.672
1208.78	298.989
1209.79	300.52
1210.8	302.199
1211.81	304.514
1212.82	306.033
1213.83	307.067
1214.84	307.424
1215.85	307.384
1216.86	306.718
1217.87	305.678
1218.88	304.275
1219.88	302.821
1220.89	302.748
1221.9	302.964
1222.91	302.788
1223.92	302.907
1224.92	305.188
1225.93	305.279
1226.93	304.977
1227.94	303.949
1228.95	302.541
1229.95	300.636
1230.96	298.368
1231.96	295.839
1232.97	292.926
1233.97	289.705
1234.98	286.36
1235.98	282.718
1236.98	279.06
1237.99	275.729
1238.99	272.732
1239.99	270.338
1241	268.414
1242	267.136
1243	266.774
1244	266.957
1245	267.478
1246	267.934
1247.01	268.664
1248.01	269.354
1249.01	269.894
1250.01	269.688
1251.01	269.43
1252.01	269.482
1253	268.748
1254	267.304
1255	266.058
1256	265.05
1257	264.326
1258	263.627
1258.99	263.212
1259.99	262.941
1260.99	262.839
1261.99	262.838
1262.98	262.952
1263.98	263.139
1264.98	263.395
1265.97	263.306
1266.97	262.368
1267.96	260.541
1268.96	258.212
1269.95	255.449
1270.95	252.479
1271.94	249.62
1272.93	247.063
1273.93	245.566
1274.92	244.809
1275.91	244.703
1276.91	245.225
1277.9	246.319
1278.89	247.931
1279.88	249.834
1280.87	252.066
1281.87	254.171
1282.86	256.424
1283.85	258.655
1284.84	260.557
1285.83	261.94
1286.82	262.487
1287.81	262.573
1288.8	261.944
1289.79	260.701
1290.78	258.695
1291.76	257.315
1292.75	255.888
1293.74	254.31
1294.73	252.366
1295.72	250.443
1296.7	248.655
1297.69	247.319
1298.68	246.375
1299.66	245.641
1300.65	245.614
1301.64	245.659
1302.62	245.766
1303.61	245.719
1304.59	245.583
1305.58	245.308
1306.56	244.975
1307.55	244.53
1308.53	243.916
1309.51	243.17
1310.5	242.318
1311.48	241.309
1312.46	240.239
1313.45	238.867
1314.43	238.971
1315.41	240.094
1316.39	242.126
1317.38	244.938
1318.36	248.574
1319.34	253.33
1320.32	256.452
1321.3	259.476
1322.28	261.92
1323.26	264.188
1324.24	266.229
1325.22	265.405
1326.2	265.267
1327.18	264.568
1328.16	263.064
1329.13	261.024
1330.11	258.349
1331.09	254.981
1332.07	251.411
1333.04	247.749
1334.02	244.675
1335	241.522
1335.97	238.528
1336.95	235.679
1337.93	233.089
1338.9	230.815
1339.88	228.79
1340.85	227.086
1341.83	225.578
1342.8	224.183
1343.78	222.994
1344.75	221.808
1345.72	221.11
1346.7	217.63
1347.67	217.91
1348.65	218.823
1349.62	220.125
1350.59	221.619
1351.56	223.148
1352.53	224.75
1353.51	226.481
1354.48	227.526
1355.45	226.68
1356.42	225.723
1357.39	225.004
1358.36	224.432
1359.33	224.02
1360.3	222.94
1361.27	221.918
1362.24	220.189
1363.21	218.629
1364.18	217.334
1365.14	216.919
1366.11	216.18
1367.08	215.548
1368.05	214.866
1369.02	213.806
1369.98	212.846
1370.95	212.011
1371.92	211.914
1372.88	211.929
1373.85	212.02
1374.81	212.167
1375.78	212.147
1376.74	212.225
1377.71	212.279
1378.68	212.286
1379.64	212.29
1380.6	212.2
1381.57	211.962
1382.53	211.686
1383.49	211.428
1384.46	211.216
1385.42	210.969
1386.38	211.028
1387.34	211.045
1388.31	211.123
1389.27	211.105
1390.23	210.945
1391.19	210.45
1392.15	209.424
1393.11	208.173
1394.07	206.632
1395.03	204.879
1395.99	202.747
1396.95	200.857
1397.91	199.459
1398.87	198.084
1399.83	196.607
1400.79	195.552
1401.75	194.935
1402.7	195.071
1403.66	195.671
1404.62	196.71
1405.58	198.434
1406.53	199.375
1407.49	199.866
1408.45	199.933
1409.4	199.539
1410.36	199.284
1411.31	198.665
1412.27	197.665
1413.23	197.628
1414.18	198.779
1415.13	198.919
1416.09	199.348
1417.04	198.869
1418	198.389
1418.95	197.937
1419.9	197.416
1420.86	196.859
1421.81	196.426
1422.76	196.187
1423.71	196.472
1424.67	196.926
1425.62	197.464
1426.57	197.843
1427.52	198.317
1428.47	198.967
1429.42	199.79
1430.37	200.757
1431.32	201.79
1432.27	204.46
1433.22	207.451
1434.17	209.248
1435.12	210.668
1436.07	211.356
1437.02	211.257
1437.96	210.935
1438.91	209.968
1439.86	209.395
1440.81	208.386
1441.75	207.247
1442.7	205.904
1443.65	204.506
1444.59	202.973
1445.54	201.337
1446.49	199.632
1447.43	197.894
1448.38	196.183
1449.32	194.439
1450.27	192.803
1451.21	191.208
1452.15	189.64
1453.1	188.214
1454.04	187.115
1454.98	186.08
1455.93	185.398
1456.87	184.088
1457.81	183.287
1458.76	182.986
1459.7	182.878
1460.64	182.482
1461.58	181.979
1462.52	181.625
1463.46	181.468
1464.4	181.459
1465.34	181.408
1466.28	181.264
1467.22	181.246
1468.16	181.029
1469.1	180.85
1470.04	180.613
1470.98	180.377
1471.92	180.175
1472.86	179.984
1473.8	179.844
1474.73	179.769
1475.67	179.716
1476.61	179.768
1477.55	179.797
1478.48	178.656
1479.42	177.631
1480.36	177.587
1481.29	177.872
1482.23	178.73
1483.16	179.697
1484.1	181.009
1485.03	182.102
1485.97	183.245
1486.9	182.523
1487.84	181.745
1488.77	180.658
1489.7	179.016
1490.64	177.298
1491.57	176.216
1492.5	174.931
1493.44	173.718
1494.37	172.917
1495.3	172.198
1496.23	171.62
1497.16	171.376
1498.09	171.103
1499.02	171.061
1499.96	171.16
1500.89	171.415
1501.82	171.843
1502.75	172.525
1503.68	173.412
1504.61	174.538
1505.53	175.884
1506.46	177.457
1507.39	179.276
1508.32	181.331
1509.25	183.688
1510.18	186.458
1511.1	189.356
1512.03	192.56
1512.96	196.081
1513.88	199.799
1514.81	203.907
1515.74	208.23
1516.66	213.051
1517.59	218.059
1518.51	223.298
1519.44	228.394
1520.36	232.016
1521.29	235.444
1522.21	238.508
1523.14	240.45
1524.06	242.931
1524.98	243.236
1525.91	242.886
1526.83	240.797
1527.75	240.44
1528.68	238.249
1529.6	235.282
1530.52	231.399
1531.44	226.585
1532.36	222.496
1533.29	217.698
1534.21	213.477
1535.13	208.522
1536.05	203.418
1536.97	198.175
1537.89	193.187
1538.81	188.781
1539.73	185.278
1540.65	181.696
1541.56	178.157
1542.48	175.062
1543.4	173.939
1544.32	173.009
1545.24	172.326
1546.16	173.673
1547.07	175.461
1547.99	177.456
1548.91	180.335
1549.82	182.04
1550.74	181.61
1551.66	175.485
1552.57	176.51
1553.49	175.674
1554.4	174.156
1555.32	172.522
1556.23	170.83
1557.15	169.197
1558.06	167.676
1558.97	165.903
1559.89	164.106
1560.8	162.348
1561.71	160.603
1562.63	158.934
1563.54	157.418
1564.45	155.957
1565.36	154.545
1566.28	153.232
1567.19	151.996
1568.1	150.805
1569.01	149.72
1569.92	148.67
1570.83	147.761
1571.74	146.765
1572.65	145.771
1573.56	145.116
1574.47	144.659
1575.38	144.744
1576.29	144.525
1577.2	143.943
1578.11	143.464
1579.01	143.3
1579.92	143.485
1580.83	143.97
1581.74	144.536
1582.64	145.227
1583.55	146.084
1584.46	146.645
1585.36	146.894
1586.27	146.922
1587.18	146.888
1588.08	146.986
1588.99	146.961
1589.89	146.967
1590.8	147.411
1591.7	147.983
1592.61	148.455
1593.51	148.151
1594.41	147.372
1595.32	146.654
1596.22	145.95
1597.12	145.752
1598.03	145.733
1598.93	146.215
1599.83	147.023
1600.73	147.842
1601.64	148.765
1602.54	149.295
1603.44	149.585
1604.34	149.737
1605.24	149.446
1606.14	148.325
1607.04	147.552
1607.94	146.986
1608.84	146.285
1609.74	145.65
1610.64	144.972
1611.54	144.137
1612.44	143.133
1613.33	142.129
1614.23	141.211
1615.13	140.191
1616.03	139.385
1616.92	138.876
1617.82	138.616
1618.72	138.499
1619.61	138.537
1620.51	138.702
1621.41	138.697
1622.3	139.21
1623.2	139.866
1624.09	139.891
1624.99	139.6
1625.88	139.312
1626.78	139.048
1627.67	138.878
1628.57	138.593
1629.46	138.241
1630.35	137.791
1631.25	136.987
1632.14	135.603
1632.53	134.893
1633.46	132.669
1634.39	131.042
1635.31	130.283
1636.24	129.696
1637.17	129.123
1638.1	129.48
1639.03	130.03
1639.96	130.955
1640.88	132.319
1641.81	133.733
1642.74	134.836
1643.67	135.031
1644.59	133.641
1645.52	132.23
1646.44	131.098
1647.37	130.273
1648.3	129.871
1649.22	130.038
1650.15	130.527
1651.07	130.945
1652	131.381
1652.92	132.005
1653.85	132.74
1654.77	133.59
1655.7	134.802
1656.62	135.564
1657.54	136.143
1658.47	136.751
1659.39	137.316
1660.31	137.691
1661.24	137.317
1662.16	136.606
1663.08	135.373
1664	134.342
1664.93	133.587
1665.85	132.933
1666.77	131.493
1667.69	130.907
1668.61	130.236
1669.53	129.724
1670.45	129.206
1671.37	128.698
1672.29	128.356
1673.21	127.833
1674.13	127.284
1675.05	127.092
1675.97	126.929
1676.89	126.381
1677.81	125.978
1678.73	125.601
1679.64	125.151
1680.56	124.674
1681.48	124.752
1682.4	124.564
1683.31	124.865
1684.23	124.896
1685.15	125.598
1686.06	127.112
1686.98	127.996
1687.9	129.29
1688.81	129.653
1689.73	129.782
1690.65	129.816
1691.56	128.535
1692.48	127.648
1693.39	127.388
1694.3	126.871
1695.22	127.863
1696.13	126.906
1697.05	125.731
1697.96	123.601
1698.87	122.074
1699.79	119.713
1700.7	117.352
1701.61	116.189
1702.53	114.918
1703.44	114.506
1704.35	113.937
1705.26	113.345
1706.17	112.966
1707.09	113.106
1708	113.419
1708.91	113.792
1709.82	114.017
1710.73	114.267
1711.64	114.592
1712.55	115.091
1713.46	115.635
1714.37	116.24
1715.28	116.825
1716.19	116.403
1717.1	115.423
1718.01	114.607
1718.92	113.685
1719.82	113.029
1720.73	112.518
1721.64	112.156
1722.55	112.285
1723.45	112.555
1724.36	113.029
1725.27	113.171
1726.18	113.313
1727.08	113.51
1727.99	113.828
1728.89	114.21
1729.8	115.187
1730.71	115.179
1731.61	115.11
1732.52	115.031
1733.42	114.936
1734.33	114.78
1735.23	114.593
1736.14	114.005
1737.04	112.957
1737.94	111.767
1738.85	110.807
1739.75	110.204
1740.65	109.415
1741.56	108.404
1742.46	107.75
1743.36	107.327
1744.26	106.905
1745.17	106.331
1746.07	105.931
1746.97	105.719
1747.87	105.743
1748.77	105.577
1749.67	105.438
1750.57	105.494
1751.47	105.423
1752.37	105.786
1753.27	105.448
1754.17	105.433
1755.07	105.529
1755.97	105.896
1756.87	106.332
1757.77	106.781
1758.67	107.26
1759.57	107.697
1760.47	108.082
1761.36	106.717
1762.26	106.456
1763.16	106.09
1764.06	105.773
1764.95	105.479
1765.85	105.303
1766.75	104.913
1767.64	104.564
1768.54	103.861
1769.44	102.937
1770.33	102.466
1771.23	102.256
1772.12	102.208
1773.02	102.347
1773.91	102.811
1774.81	103.335
1775.7	103.879
1776.6	104.417
1777.49	104.8
1778.38	105.417
1779.28	105.441
1780.17	105.478
1781.06	105.479
1781.96	105.009
1782.85	104.688
1783.74	104.627
1784.64	104.357
1785.53	103.327
1786.42	102.247
1787.31	101.239
1788.2	100.553
1789.09	100.159
1789.98	99.8684
1790.87	99.7863
1791.76	98.9578
1792.66	97.5393
1793.55	96.5024
1794.43	95.5008
1795.32	94.9733
1796.21	94.1032
1797.1	92.7631
1797.99	91.3058
1798.88	90.6009
1799.77	90.1212
