Acq. time (s)=	15
Accumulations=	2
Range (cm-¹)=	600...1800
Windows=	2
Autofocus=	Off
AutoExposure=	Off
Spike filter=	Multiple accum.
Delay time (s)=	1
Binning=	1
Readout mode=	Signal
DeNoise=	Standard
ICS correction=	Off
Dark correction=	Off
Inst. Process=	Off
Instrument=	XploRA
Detector=	Syncerity
Objective=	x20LWD
Grating=	1200 gr/mm
Filter=	25%
Laser (nm)=	785 
Slit (µm)=	100 
Hole (µm)=	300 
Laser pol=	None
Raman pol=	None
Output=	Camera
StageXY=	Marzhauser
StageZ=	
X (µm)=	-6997.1
Y (µm)=	1575.3
Project=	
Sample=	
Site=	
Title=	Cmm1 s-m
Remark=	
Date=	22.07.2022 06:18
Acquired=	22.07.2022 06:18:52
600.839	1719.22
602.009	1738.88
603.178	1757.54
604.347	1773.68
605.516	1787.65
606.684	1799.91
607.852	1811.41
609.02	1822.27
610.187	1833.62
611.355	1845.28
612.521	1856.98
613.688	1868.41
614.854	1879.3
616.02	1889.45
617.185	1899.36
618.351	1908.42
619.516	1917.35
620.681	1926.01
621.846	1934.73
623.009	1943.58
624.174	1952.44
625.337	1961.06
626.501	1965.55
627.664	1967.15
628.826	1969.84
629.988	1972.73
631.151	1977.18
632.313	1979.55
633.474	1977.69
634.635	1976.76
635.797	1976.1
636.958	1975.85
638.117	1974.69
639.278	1973.88
640.437	1973.75
641.597	1975.12
642.756	1976.9
643.915	1979.02
645.074	1982.85
646.233	1986.72
647.391	1990.18
648.548	1991.82
649.706	1992.6
650.863	1992.4
652.02	1991.8
653.176	1990.65
654.333	1988.64
655.489	1986.64
656.645	1985.27
657.8	1984.62
658.955	1985.08
660.11	1987.05
661.264	1989.77
662.419	1993.43
663.573	1998.24
664.727	2004.06
665.88	2009.83
667.033	2014.79
668.186	2018.4
669.338	2019.62
670.491	2019.68
671.643	2019.13
672.794	2018.19
673.945	2017.21
675.096	2016.9
676.247	2016.41
677.398	2016.56
678.548	2016.88
679.698	2017.21
680.847	2017.56
681.997	2017.73
683.146	2017.45
684.294	2016.88
685.443	2015.47
686.591	2013.88
687.739	2012.3
688.887	2010.5
690.034	2009.11
691.181	2008.37
692.328	2008.31
693.474	2008.49
694.62	2008.74
695.766	2009.06
696.911	2009.38
698.057	2009.39
699.202	2008.71
700.346	2008.17
701.49	2006.98
702.635	2005.33
703.779	2002.6
704.922	1998.48
706.065	1993.57
707.208	1988.33
708.351	1982.35
709.493	1976.22
710.635	1970.25
711.776	1964.43
712.918	1959.42
714.059	1955.91
715.2	1953.04
716.341	1952.24
717.481	1952.24
718.621	1947.12
719.761	1939.75
720.9	1928.69
722.04	1918.58
723.178	1912.49
724.317	1908.9
725.455	1908.47
726.594	1910.46
727.731	1914.17
728.868	1920.5
730.005	1922.36
731.142	1929.9
732.279	1934.29
733.415	1947.05
734.551	1960.03
735.686	1973.47
736.822	1993.02
737.957	2006.33
739.092	2012.62
740.226	2019.18
741.36	2015.29
742.495	2014.24
743.628	2010.61
744.762	1992.03
745.895	1981.17
747.027	1971.97
748.16	1964.94
749.292	1958.2
750.423	1951.52
751.555	1944.85
752.686	1937.47
753.817	1930.12
754.949	1922.74
756.079	1914.89
757.209	1906.59
758.339	1898.07
759.469	1889.14
760.597	1880.22
761.727	1871.1
762.856	1861.79
763.984	1852.66
765.112	1842.77
766.24	1832.62
767.367	1822.23
768.494	1811.92
769.622	1801.79
770.749	1792.26
771.874	1783.84
773.001	1775.51
774.127	1768.05
775.253	1761.42
776.377	1755.5
777.503	1750.09
778.627	1745
779.751	1740.15
780.876	1734.97
782	1730.34
783.123	1725.93
784.246	1721.68
785.37	1717.35
786.492	1713.05
787.614	1708.84
788.737	1704.95
789.858	1701.21
790.979	1697.62
792.101	1694.75
793.222	1692.19
794.342	1689.45
795.463	1686.65
796.583	1683.04
797.702	1678.85
798.822	1674.35
799.942	1669.89
801.06	1665.44
802.179	1661.09
803.297	1657.1
804.415	1653.62
805.533	1650.81
806.651	1648.18
807.768	1645.9
808.885	1644.02
810.001	1642.57
811.118	1642.12
812.233	1642.33
813.349	1642
814.464	1640.05
815.58	1637.47
816.695	1634.46
817.809	1630.92
818.924	1626.88
820.038	1623.19
821.152	1618.37
822.265	1613.4
823.378	1608.48
824.491	1603.93
825.604	1599.76
826.716	1596.76
827.828	1594.67
828.94	1592.8
830.051	1592.83
831.162	1593.14
832.273	1593.94
833.383	1594.98
834.494	1595.47
835.604	1594.49
836.714	1593.23
837.823	1591.55
838.932	1590.04
840.041	1588.3
841.15	1586.72
842.258	1584.47
843.366	1581.87
844.474	1578.9
845.581	1575.59
846.688	1571.37
847.795	1566.89
848.901	1562.41
850.008	1557.83
851.115	1553.4
852.22	1549.4
853.325	1545.92
854.43	1542.52
855.536	1539.02
856.64	1535.6
857.745	1532.39
858.848	1528.79
859.952	1518.92
861.055	1510.11
862.158	1504.3
863.261	1501.67
864.364	1499.33
865.466	1498.36
866.568	1496.03
867.67	1489.4
868.771	1483.41
869.873	1479.17
870.973	1475.99
872.074	1473.65
873.174	1472
874.274	1470.81
875.374	1470.07
876.473	1469.35
877.572	1468.94
878.671	1468.96
879.77	1470.82
880.868	1465.39
881.966	1460.81
883.064	1458.34
884.161	1457.15
885.258	1458.87
886.356	1453.68
887.452	1448.86
888.548	1443.46
889.645	1438.08
890.74	1433.3
891.836	1430.6
892.931	1428.76
894.025	1427.91
895.12	1432.26
896.214	1432.98
897.308	1433.66
898.402	1434.47
899.495	1435.83
900.588	1437.42
901.681	1439.21
902.774	1440.04
903.866	1441.06
904.958	1444.55
906.05	1448.31
907.142	1451.69
908.233	1454.62
909.324	1457.44
910.414	1459.29
911.504	1461.16
912.594	1462.26
913.684	1461.82
914.774	1457.58
915.863	1452.21
916.952	1447.64
918.041	1441.33
919.129	1434.63
920.217	1426.75
921.305	1416.08
922.392	1407.14
923.48	1398.46
924.567	1390.1
925.653	1380.66
926.74	1371.18
927.825	1362.75
928.911	1354.95
929.997	1347.63
931.082	1340.89
932.166	1334.92
933.252	1329.8
934.336	1325.59
935.42	1322.04
936.504	1319.65
937.587	1318.06
938.671	1316.8
939.753	1316.71
940.836	1317.03
941.919	1317.66
943	1314.41
944.082	1312.41
945.163	1310.34
946.245	1308.07
947.326	1305.14
948.406	1302.27
949.487	1298.13
950.567	1294.49
951.647	1292.14
952.727	1289.89
953.805	1287.36
954.885	1286.51
955.964	1285.22
957.042	1283.68
958.12	1280.39
959.198	1278.62
960.276	1278.05
961.352	1276.76
962.43	1273.95
963.507	1270.58
964.583	1266.79
965.659	1262.39
966.735	1257.39
967.81	1252.85
968.885	1249.03
969.961	1248.12
971.036	1248.95
972.11	1251.59
973.184	1255.61
974.258	1260.68
975.332	1261.89
976.405	1263.24
977.478	1264.55
978.551	1269.67
979.624	1273.69
980.696	1282.92
981.767	1290.81
982.839	1293.39
983.911	1292.7
984.982	1291.39
986.052	1289.37
987.123	1286.8
988.193	1284.38
989.263	1282.27
990.333	1280.04
991.403	1277.7
992.471	1275.01
993.54	1272.63
994.608	1266
995.677	1271.08
996.745	1280.12
997.812	1286.56
998.88	1285.98
999.947	1282.91
1001.01	1277.48
1002.08	1271.83
1003.15	1265.8
1004.21	1259.06
1005.28	1252.62
1006.34	1243.81
1007.41	1233.16
1008.47	1223.26
1009.54	1213.53
1010.6	1203.73
1011.67	1193.54
1012.73	1183.38
1013.79	1173.96
1014.86	1165.27
1015.92	1158.36
1016.98	1153.1
1018.05	1149.6
1019.11	1145.06
1020.17	1140.46
1021.23	1136.99
1022.29	1133.05
1023.35	1133.05
1024.41	1133.17
1025.47	1134.95
1026.53	1132.41
1027.59	1128.06
1028.65	1123.83
1029.71	1119.81
1030.77	1115.85
1031.83	1112.21
1032.89	1109.15
1033.95	1106.81
1035	1105.48
1036.06	1103.5
1037.12	1101.82
1038.18	1099.47
1039.23	1098.66
1040.29	1097.97
1041.35	1097.83
1042.4	1098.05
1043.46	1098.18
1044.51	1103.5
1045.57	1104.24
1046.62	1103.18
1047.68	1100.91
1048.73	1099.03
1049.79	1096.2
1050.84	1091.35
1051.89	1086.5
1052.95	1082.08
1054	1077.34
1055.05	1068.52
1056.1	1066.7
1057.16	1066.55
1058.21	1066.14
1059.26	1065.23
1060.31	1066.27
1061.36	1067.74
1062.41	1068.72
1063.46	1068.57
1064.51	1068.14
1065.56	1068.46
1066.61	1068.48
1067.66	1067
1068.71	1065.61
1069.76	1063.08
1070.81	1059.72
1071.85	1056.28
1072.9	1054.14
1073.95	1050.99
1075	1047.49
1076.04	1046.45
1077.09	1045.78
1078.14	1042.13
1079.18	1037.73
1080.23	1033.6
1081.27	1030.24
1082.32	1027.6
1083.36	1025.66
1084.41	1024.47
1085.45	1021.06
1086.5	1018.28
1087.54	1013.64
1088.59	1010.31
1089.63	1008.5
1090.67	1006.65
1091.71	1005.31
1092.76	1005.66
1093.8	1005.28
1094.84	1004.88
1095.88	1006.32
1096.92	1009.26
1097.97	1009.52
1099.01	1009.14
1100.05	1008.03
1101.09	1006.2
1102.13	1003.9
1103.17	1001.67
1104.21	999.328
1105.25	998.341
1106.28	997.801
1107.32	996.673
1108.36	995.863
1109.4	995.991
1110.44	996.257
1111.47	994.749
1112.51	992.876
1113.55	992.161
1114.59	990.111
1115.62	986.588
1116.66	983.346
1117.69	979.196
1118.73	974.343
1119.77	969.467
1120.8	965.433
1121.84	962.83
1122.87	960.445
1123.9	957.607
1124.94	955.785
1125.97	953.695
1127	953
1128.04	954.882
1129.07	958.854
1130.1	964.59
1131.13	971.281
1132.17	978.094
1133.2	985.561
1134.23	993.151
1135.26	1001.12
1136.29	1009.24
1137.32	1017.11
1138.35	1022.86
1139.38	1029.54
1140.41	1034.84
1141.44	1040.16
1142.47	1042.83
1143.5	1045.54
1144.53	1041.03
1145.56	1031.03
1146.59	1010.89
1147.61	1021.49
1148.64	1033.18
1149.67	1046.18
1150.7	1071.43
1151.72	1088.07
1152.75	1095.78
1153.77	1103.74
1154.8	1109.16
1155.83	1114.41
1156.85	1122.5
1157.88	1110.96
1158.9	1077.11
1159.93	1055.33
1160.95	1029.14
1161.97	1006.68
1163	982.441
1164.02	957.848
1165.04	940.082
1166.07	929.367
1167.09	931.73
1168.11	928.278
1169.13	928.52
1170.16	930.563
1171.18	933.713
1172.2	937.878
1173.22	942.575
1174.24	946.569
1175.26	953.387
1176.28	957.208
1177.3	963.833
1178.32	970.389
1179.34	976.261
1180.36	978.211
1181.38	982.16
1182.4	985.519
1183.41	986.883
1184.43	985.972
1185.45	985.537
1186.47	980.584
1187.48	974.437
1188.5	964.515
1189.52	954.324
1190.53	942.847
1191.55	930.273
1192.56	919.794
1193.58	911.545
1194.59	903.268
1195.61	896.633
1196.62	890.138
1197.64	884.156
1198.65	880.047
1199.67	878.639
1200.68	875.208
1201.69	872.749
1202.71	872.97
1203.72	870.896
1204.73	867.894
1205.74	867.708
1206.76	868.948
1207.77	871.149
1208.78	876.068
1209.79	880.57
1210.8	883.433
1211.81	886.515
1212.82	888.538
1213.83	888.536
1214.84	888.165
1215.85	888.955
1216.86	890.847
1217.87	890.461
1218.88	887.98
1219.88	885.429
1220.89	882.201
1221.9	878.528
1222.91	875.427
1223.92	872.016
1224.92	869.686
1225.93	867.281
1226.93	864.582
1227.94	861.302
1228.95	855.613
1229.95	849.669
1230.96	844.515
1231.96	840.286
1232.97	835.661
1233.97	831.427
1234.98	825.819
1235.98	819.521
1236.98	812.503
1237.99	805.294
1238.99	799.079
1239.99	792.59
1241	785.116
1242	779.179
1243	773.964
1244	769.144
1245	764.008
1246	758.269
1247.01	754.466
1248.01	750.021
1249.01	745.698
1250.01	743.999
1251.01	743.715
1252.01	744.327
1253	746.315
1254	749.546
1255	752.634
1256	756.362
1257	760.09
1258	762.773
1258.99	765.057
1259.99	766.762
1260.99	768.028
1261.99	768.722
1262.98	768.295
1263.98	766.306
1264.98	763.707
1265.97	761.012
1266.97	757.06
1267.96	754.593
1268.96	751.051
1269.95	748.052
1270.95	744.811
1271.94	741.298
1272.93	739.532
1273.93	738.683
1274.92	737.029
1275.91	735.49
1276.91	735.544
1277.9	737.526
1278.89	740.66
1279.88	744.698
1280.87	749.301
1281.87	752.572
1282.86	754.725
1283.85	757.35
1284.84	759.396
1285.83	760.078
1286.82	757.719
1287.81	754.791
1288.8	748.992
1289.79	744.571
1290.78	740.096
1291.76	734.473
1292.75	729.766
1293.74	724.312
1294.73	717.21
1295.72	710.937
1296.7	704.999
1297.69	702.002
1298.68	698.458
1299.66	697.359
1300.65	698.07
1301.64	698.727
1302.62	700.745
1303.61	702.916
1304.59	704.882
1305.58	704.995
1306.56	704.407
1307.55	702.978
1308.53	700.688
1309.51	698.164
1310.5	695.538
1311.48	691.541
1312.46	689.718
1313.45	693.336
1314.43	693.59
1315.41	696.436
1316.39	697.988
1317.38	704.266
1318.36	710.072
1319.34	719.83
1320.32	728.116
1321.3	742.717
1322.28	753.06
1323.26	772.676
1324.24	784.961
1325.22	788.66
1326.2	787.139
1327.18	781.579
1328.16	771.623
1329.13	742.347
1330.11	729.513
1331.09	719.145
1332.07	708.35
1333.04	698.646
1334.02	689.539
1335	680.946
1335.97	673.362
1336.95	665.729
1337.93	659.307
1338.9	654.147
1339.88	654.401
1340.85	651.516
1341.83	649.393
1342.8	647.074
1343.78	645.553
1344.75	643.641
1345.72	642.559
1346.7	641.699
1347.67	640.393
1348.65	640.131
1349.62	639.441
1350.59	638.165
1351.56	635.959
1352.53	632.223
1353.51	630.07
1354.48	627.222
1355.45	624.769
1356.42	621.336
1357.39	618.838
1358.36	615.54
1359.33	610.658
1360.3	607.196
1361.27	603.127
1362.24	601.145
1363.21	599.245
1364.18	597.55
1365.14	598.506
1366.11	600.959
1367.08	603.492
1368.05	602.507
1369.02	601.588
1369.98	598.996
1370.95	593.496
1371.92	591.91
1372.88	590.949
1373.85	596.646
1374.81	603.324
1375.78	610.521
1376.74	614.817
1377.71	618.452
1378.68	619.65
1379.64	613.551
1380.6	611.807
1381.57	611.146
1382.53	607.202
1383.49	599.383
1384.46	589.934
1385.42	599.998
1386.38	616.309
1387.34	623.748
1388.31	607.87
1389.27	600.693
1390.23	594.335
1391.19	592.499
1392.15	592.568
1393.11	588.191
1394.07	585.494
1395.03	582.516
1395.99	582.754
1396.95	580.634
1397.91	574.724
1398.87	570.341
1399.83	567.684
1400.79	567.36
1401.75	568.228
1402.7	570.966
1403.66	570.251
1404.62	568.722
1405.58	567.299
1406.53	566.004
1407.49	563.183
1408.45	557.435
1409.4	553.121
1410.36	550.281
1411.31	549.026
1412.27	549.212
1413.23	549.983
1414.18	550.555
1415.13	550.558
1416.09	552.382
1417.04	553.079
1418	553.898
1418.95	555.134
1419.9	555.997
1420.86	557.462
1421.81	559.227
1422.76	559.79
1423.71	560.593
1424.67	561.93
1425.62	563.391
1426.57	564.317
1427.52	564.183
1428.47	565.005
1429.42	566.489
1430.37	569.29
1431.32	573.111
1432.27	577.224
1433.22	579.089
1434.17	579.74
1435.12	581.159
1436.07	581.008
1437.02	580.149
1437.96	578.724
1438.91	576.238
1439.86	572.624
1440.81	569.625
1441.75	566.422
1442.7	562.822
1443.65	558.852
1444.59	555.655
1445.54	552.745
1446.49	550.095
1447.43	548
1448.38	546.468
1449.32	544.617
1450.27	541.708
1451.21	538.887
1452.15	535.609
1453.1	532.062
1454.04	529.551
1454.98	525.594
1455.93	522.454
1456.87	519.569
1457.81	516.848
1458.76	515.409
1459.7	513.142
1460.64	510.751
1461.58	508.758
1462.52	507.901
1463.46	507.011
1464.4	506.05
1465.34	504.943
1466.28	505.081
1467.22	505.1
1468.16	505.066
1469.1	503.778
1470.04	503.319
1470.98	503.296
1471.92	503.143
1472.86	503.7
1473.8	504.214
1474.73	504.682
1475.67	504.864
1476.61	506.061
1477.55	507.043
1478.48	507.926
1479.42	509.871
1480.36	512.342
1481.29	514.218
1482.23	515.696
1483.16	515.942
1484.1	516.119
1485.03	516.196
1485.97	517.62
1486.9	516.435
1487.84	514.904
1488.77	512.138
1489.7	508.638
1490.64	504.781
1491.57	500.714
1492.5	496.157
1493.44	491.418
1494.37	487.852
1495.3	485.156
1496.23	483.407
1497.16	482.411
1498.09	482.158
1499.02	482.455
1499.96	483.604
1500.89	484.229
1501.82	486.034
1502.75	489.674
1503.68	491.766
1504.61	494.525
1505.53	497.147
1506.46	500.069
1507.39	504.555
1508.32	508.255
1509.25	514.48
1510.18	519.241
1511.1	523.268
1512.03	534.07
1512.96	547.478
1513.88	562.843
1514.81	578.598
1515.74	595.138
1516.66	612.176
1517.59	630.493
1518.51	646.898
1519.44	662.536
1520.36	675.338
1521.29	687.263
1522.21	694.683
1523.14	700.201
1524.06	702.827
1524.98	703.24
1525.91	696.026
1526.83	690.042
1527.75	681.787
1528.68	672.601
1529.6	659.868
1530.52	645.991
1531.44	632.059
1532.36	618.124
1533.29	604.761
1534.21	591.946
1535.13	581.562
1536.05	571.739
1536.97	559.626
1537.89	547.648
1538.81	536.091
1539.73	526.563
1540.65	518.875
1541.56	511.714
1542.48	506.702
1543.4	502.876
1544.32	500.85
1545.24	499.592
1546.16	500.111
1547.07	500.964
1547.99	501.152
1548.91	500.919
1549.82	500.766
1550.74	499.064
1551.66	497.535
1552.57	493.539
1553.49	488.988
1554.4	483.403
1555.32	477.127
1556.23	470.542
1557.15	464.582
1558.06	458.391
1558.97	454.158
1559.89	447.597
1560.8	442.308
1561.71	432.423
1562.63	428.58
1563.54	426.478
1564.45	425.343
1565.36	424.777
1566.28	425.838
1567.19	429.89
1568.1	430.934
1569.01	431.368
1569.92	432.048
1570.83	429.6
1571.74	428.701
1572.65	425.162
1573.56	422.51
1574.47	420.495
1575.38	418.494
1576.29	416.657
1577.2	414.718
1578.11	413.054
1579.01	412.113
1579.92	411.425
1580.83	411.253
1581.74	411.758
1582.64	412.053
1583.55	412.089
1584.46	412.726
1585.36	413.378
1586.27	414.144
1587.18	414.308
1588.08	414.292
1588.99	413.847
1589.89	413.547
1590.8	413.739
1591.7	413.865
1592.61	414.342
1593.51	414.941
1594.41	416.022
1595.32	416.815
1596.22	417.857
1597.12	419.559
1598.03	421.161
1598.93	422.962
1599.83	425.041
1600.73	427.471
1601.64	429.097
1602.54	430.195
1603.44	431.261
1604.34	432.366
1605.24	432.803
1606.14	432.439
1607.04	430.959
1607.94	429.434
1608.84	427.773
1609.74	426.544
1610.64	425.195
1611.54	424.3
1612.44	423.407
1613.33	423.134
1614.23	421.687
1615.13	420.378
1616.03	419.341
1616.92	416.682
1617.82	413.516
1618.72	410.555
1619.61	407.519
1620.51	404.47
1621.41	401.708
1622.3	399.256
1623.2	397.703
1624.09	398.025
1624.99	398.786
1625.88	398.842
1626.78	398.818
1627.67	399.046
1628.57	399.312
1629.46	399.618
1630.35	400.094
1631.25	400.871
1632.14	401.978
1632.85	402.889
1633.78	402.884
1634.71	402.513
1635.64	403.449
1636.57	404.203
1637.5	403.292
1638.42	402.025
1639.35	400.538
1640.28	399.099
1641.21	397.141
1642.13	395.12
1643.06	392.147
1643.99	389.199
1644.91	385.899
1645.84	383.31
1646.77	381.024
1647.69	379.464
1648.62	378.478
1649.54	378.592
1650.47	379.103
1651.39	379.432
1652.32	380.521
1653.24	381.53
1654.17	382.819
1655.09	384.077
1656.01	384.756
1656.94	385.33
1657.86	385.837
1658.78	385.134
1659.71	385.059
1660.63	384.502
1661.55	384.959
1662.47	385.353
1663.4	385.065
1664.32	385.024
1665.24	384.767
1666.16	384.841
1667.08	383.87
1668	383.609
1668.92	382.342
1669.84	382.301
1670.76	382.228
1671.68	378.469
1672.6	376.179
1673.52	373.401
1674.44	372.183
1675.36	369.442
1676.28	367.168
1677.2	364.387
1678.12	363.131
1679.03	362.27
1679.95	361.551
1680.87	360.521
1681.79	358.951
1682.7	360.123
1683.62	361.294
1684.54	365.075
1685.45	366.231
1686.37	362.81
1687.29	360.585
1688.2	358.878
1689.12	357.809
1690.03	357.191
1690.95	353.492
1691.86	351.872
1692.78	349.416
1693.69	354.39
1694.61	354.801
1695.52	353.444
1696.43	352.269
1697.35	351.414
1698.26	350.561
1699.17	351.221
1700.09	350.425
1701	350.754
1701.91	350.194
1702.82	349.033
1703.74	348.083
1704.65	347.875
1705.56	346.531
1706.47	343.998
1707.38	341.925
1708.29	339.462
1709.2	338.048
1710.11	337.36
1711.02	337.235
1711.93	335.253
1712.84	333.157
1713.75	330.889
1714.66	328.72
1715.57	327.283
1716.48	325.227
1717.39	323.813
1718.3	322.78
1719.21	322.88
1720.11	322.367
1721.02	322.293
1721.93	322.363
1722.84	322.742
1723.74	323.334
1724.65	324.209
1725.56	325.299
1726.46	326.266
1727.37	327.606
1728.28	328.038
1729.18	327.389
1730.09	326.284
1730.99	325.147
1731.9	323.568
1732.8	321.924
1733.71	320.429
1734.61	318.212
1735.52	316.157
1736.42	313.839
1737.32	313.02
1738.23	311.693
1739.13	311.759
1740.03	312.78
1740.94	313.671
1741.84	314.56
1742.74	315.707
1743.64	318.073
1744.54	321.76
1745.45	321.429
1746.35	320.797
1747.25	319.601
1748.15	316.081
1749.05	312.174
1749.95	308.543
1750.85	306.448
1751.75	305.514
1752.65	304.519
1753.55	304.413
1754.45	304.913
1755.35	309.589
1756.25	310.35
1757.15	311.157
1758.05	311.441
1758.94	311.806
1759.84	311.669
1760.74	311.803
1761.64	311.83
1762.53	312.062
1763.43	311.527
1764.33	309.618
1765.23	308.091
1766.12	306.533
1767.02	305.162
1767.91	303.398
1768.81	301.981
1769.71	301.842
1770.6	301.31
1771.5	301.854
1772.39	302.167
1773.29	302.645
1774.18	302.947
1775.07	303.144
1775.97	302.171
1776.86	301.205
1777.76	300.342
1778.65	299.549
1779.54	298.555
1780.44	297.989
1781.33	297.774
1782.22	297.144
1783.11	296.285
1784.01	294.741
1784.9	293.582
1785.79	292.609
1786.68	291.583
1787.57	291.026
1788.46	290.761
1789.35	290.632
1790.24	290.223
1791.13	289.533
1792.02	288.034
1792.91	285.936
1793.8	283.493
1794.69	282.453
1795.58	281.649
1796.47	281.743
1797.36	282.855
1798.25	284.102
1799.14	279.292
