Acq. time (s)=	15
Accumulations=	2
Range (cm-¹)=	600...1800
Windows=	2
Autofocus=	Off
AutoExposure=	Off
Spike filter=	Multiple accum.
Delay time (s)=	1
Binning=	1
Readout mode=	Signal
DeNoise=	Standard
ICS correction=	Off
Dark correction=	Off
Inst. Process=	Off
Instrument=	XploRA
Detector=	Syncerity
Objective=	x20LWD
Grating=	1200 gr/mm
Filter=	25%
Laser (nm)=	785 
Slit (µm)=	100 
Hole (µm)=	300 
Laser pol=	None
Raman pol=	None
Output=	Camera
StageXY=	Marzhauser
StageZ=	
X (µm)=	-9875.2
Y (µm)=	1993.1
Project=	
Sample=	
Site=	
Title=	Cmm1 s-m
Remark=	
Date=	22.07.2022 06:28
Acquired=	22.07.2022 06:28:43
600.839	801.474
602.009	804.616
603.178	809.229
604.347	807.319
605.516	816.053
606.684	822.434
607.852	832.076
609.02	839.52
610.187	849.47
611.355	858.999
612.521	868.217
613.688	877.665
614.854	883.693
616.02	890.2
617.185	895.3
618.351	899.455
619.516	900.673
620.681	886.447
621.846	887.055
623.009	887.976
624.174	888.56
625.337	890.53
626.501	901.068
627.664	907.924
628.826	911.914
629.988	915.528
631.151	917.88
632.313	917.67
633.474	918.107
634.635	917.725
635.797	918.219
636.958	918.022
638.117	917.5
639.278	916.328
640.437	916.016
641.597	915.044
642.756	913.309
643.915	912.233
645.074	912.577
646.233	912.162
647.391	911.116
648.548	911.454
649.706	911.875
650.863	911.784
652.02	911.418
653.176	910.966
654.333	910.506
655.489	909.823
656.645	908.804
657.8	907.222
658.955	906.622
660.11	904.802
661.264	904.542
662.419	905.896
663.573	908.434
664.727	910.256
665.88	913.567
667.033	917.049
668.186	919.827
669.338	921.116
670.491	920.521
671.643	919.655
672.794	919.004
673.945	918.27
675.096	918.204
676.247	921.994
677.398	924.506
678.548	929.621
679.698	927.979
680.847	925.763
681.997	924.015
683.146	922.383
684.294	921.006
685.443	919.857
686.591	920.422
687.739	922.334
688.887	924.089
690.034	925.858
691.181	927.652
692.328	929.175
693.474	930.294
694.62	930.306
695.766	929.213
696.911	926.451
698.057	923.848
699.202	921.571
700.346	919.5
701.49	917.183
702.635	912.376
703.779	908.386
704.922	905.039
706.065	902.361
707.208	900.062
708.351	898.545
709.493	896.149
710.635	893.62
711.776	892.203
712.918	890.12
714.059	889.076
715.2	886.934
716.341	886.276
717.481	883.996
718.621	881.496
719.761	878.462
720.9	876.785
722.04	875.378
723.178	873.469
724.317	871.644
725.455	870.556
726.594	870.218
727.731	870.816
728.868	870.604
730.005	872.303
731.142	874.756
732.279	878.163
733.415	882.777
734.551	888.097
735.686	891.914
736.822	894.421
737.957	897.193
739.092	899.689
740.226	901.551
741.36	902.52
742.495	903.421
743.628	903.574
744.762	901.132
745.895	897.146
747.027	893.294
748.16	890.699
749.292	887.397
750.423	883.149
751.555	879.377
752.686	875.394
753.817	869.612
754.949	863.875
756.079	858.258
757.209	852.193
758.339	845.15
759.469	840.079
760.597	835.466
761.727	831.622
762.856	828.642
763.984	826.785
765.112	826.072
766.24	825.112
767.367	823.488
768.494	822.827
769.622	821.291
770.749	819.722
771.874	817.779
773.001	815.499
774.127	813.041
775.253	810.057
776.377	805.678
777.503	801.545
778.627	797.552
779.751	793.546
780.876	789.747
782	786.647
783.123	784.494
784.246	783.023
785.37	782.079
786.492	781.375
787.614	780.698
788.737	779.378
789.858	777.835
790.979	775.428
792.101	773.874
793.222	773.29
794.342	772.433
795.463	771.393
796.583	768.941
797.702	766.629
798.822	764.067
799.942	760.921
801.06	758.286
802.179	756.036
803.297	753.931
804.415	751.767
805.533	749.761
806.651	747.501
807.768	745.422
808.885	743.712
810.001	742.054
811.118	740.677
812.233	738.45
813.349	737.873
814.464	737.986
815.58	738.047
816.695	738.317
817.809	740.617
818.924	743.483
820.038	746.73
821.152	749.009
822.265	749.5
823.378	749.204
824.491	748.293
825.604	746.977
826.716	743.471
827.828	743.728
828.94	743.672
830.051	742.475
831.162	741.531
832.273	740.776
833.383	740.033
834.494	739.457
835.604	735.487
836.714	731.92
837.823	729.558
838.932	728.067
840.041	727.381
841.15	727.901
842.258	728.081
843.366	728.043
844.474	726.438
845.581	724.88
846.688	723.251
847.795	720.891
848.901	717.609
850.008	713.739
851.115	709.076
852.22	704.192
853.325	701.032
854.43	697.606
855.536	694.909
856.64	692.96
857.745	691.014
858.848	689.919
859.952	690.052
861.055	688.521
862.158	687.931
863.261	685.929
864.364	684.02
865.466	682.289
866.568	680.625
867.67	679.432
868.771	679.325
869.873	679.522
870.973	678.079
872.074	676.591
873.174	675.114
874.274	673.661
875.374	671.955
876.473	670.46
877.572	669.527
878.671	668.623
879.77	667.563
880.868	666.174
881.966	664.284
883.064	662.03
884.161	659.195
885.258	656.065
886.356	653.886
887.452	652.571
888.548	651.828
889.645	651.823
890.74	650.578
891.836	649.371
892.931	648.385
894.025	647.883
895.12	647.904
896.214	648.12
897.308	648.494
898.402	649.868
899.495	650.078
900.588	650.513
901.681	651.133
902.774	652.347
903.866	654.2
904.958	656.041
906.05	658.239
907.142	660.687
908.233	662.735
909.324	664.368
910.414	664.089
911.504	663.534
912.594	663.238
913.684	663.88
914.774	663.08
915.863	662.697
916.952	660.689
918.041	656.499
919.129	652.072
920.217	647.425
921.305	642.6
922.392	637.941
923.48	624.876
924.567	620.407
925.653	618.934
926.74	618.1
927.825	617.51
928.911	617.243
929.997	617.535
931.082	618.193
932.166	616.688
933.252	613.479
934.336	610.83
935.42	608.363
936.504	605.714
937.587	602.431
938.671	599.808
939.753	596.455
940.836	595.584
941.919	599.71
943	599.83
944.082	597.139
945.163	593.925
946.245	590.613
947.326	588.621
948.406	585.932
949.487	584.241
950.567	582.47
951.647	580.553
952.727	580.056
953.805	579.836
954.885	582.888
955.964	584.2
957.042	585.769
958.12	587.013
959.198	588.038
960.276	588.862
961.352	588.378
962.43	587.632
963.507	587.495
964.583	587.543
965.659	586.968
966.735	583.711
967.81	581.659
968.885	577.881
969.961	575.167
971.036	573.212
972.11	572.537
973.184	572.648
974.258	573.234
975.332	574.03
976.405	575.112
977.478	577.1
978.551	579.507
979.624	582.486
980.696	587.145
981.767	589.523
982.839	592.064
983.911	593.643
984.982	594.435
986.052	594.552
987.123	593.651
988.193	592.492
989.263	590.343
990.333	587.247
991.403	584.431
992.471	582.373
993.54	580.899
994.608	579.754
995.677	578.368
996.745	577.236
997.812	576.371
998.88	578.425
999.947	576.661
1001.01	574.909
1002.08	572.87
1003.15	568.339
1004.21	563.49
1005.28	557.266
1006.34	553.626
1007.41	550.344
1008.47	546.924
1009.54	543.851
1010.6	541.846
1011.67	540.557
1012.73	538.06
1013.79	535.231
1014.86	533.43
1015.92	531.228
1016.98	528.658
1018.05	525.67
1019.11	523.555
1020.17	522.035
1021.23	520.91
1022.29	519.964
1023.35	519.085
1024.41	518.528
1025.47	517.151
1026.53	514.048
1027.59	512.147
1028.65	510.739
1029.71	509.391
1030.77	508.29
1031.83	507.221
1032.89	506.313
1033.95	505.627
1035	505.123
1036.06	505.115
1037.12	505.461
1038.18	505.756
1039.23	505.91
1040.29	506.211
1041.35	506.727
1042.4	507.356
1043.46	507.424
1044.51	507.186
1045.57	506.851
1046.62	506.555
1047.68	506.82
1048.73	506.656
1049.79	504.474
1050.84	502.903
1051.89	501.529
1052.95	499.004
1054	495.379
1055.05	493.697
1056.1	492.512
1057.16	491.042
1058.21	487.699
1059.26	487.32
1060.31	487.512
1061.36	488.894
1062.41	491.574
1063.46	492.003
1064.51	491.64
1065.56	490.593
1066.61	489.349
1067.66	486.731
1068.71	484.623
1069.76	482.646
1070.81	478.111
1071.85	477.428
1072.9	477.098
1073.95	477.675
1075	476.604
1076.04	476.109
1077.09	475.701
1078.14	474.892
1079.18	474.453
1080.23	473.395
1081.27	472.014
1082.32	470.915
1083.36	469.361
1084.41	467.824
1085.45	466.021
1086.5	463.958
1087.54	462.025
1088.59	460.192
1089.63	459.932
1090.67	458.883
1091.71	458.283
1092.76	457.846
1093.8	456.655
1094.84	455.751
1095.88	455.977
1096.92	456.921
1097.97	457.942
1099.01	459.067
1100.05	460.147
1101.09	461.001
1102.13	461.665
1103.17	461.831
1104.21	461.671
1105.25	461.436
1106.28	462.227
1107.32	460.902
1108.36	460.018
1109.4	458.365
1110.44	456.432
1111.47	453.962
1112.51	451.247
1113.55	446.758
1114.59	442.959
1115.62	440.932
1116.66	438.155
1117.69	437.721
1118.73	440.108
1119.77	440.654
1120.8	443.093
1121.84	443.317
1122.87	443.212
1123.9	442.643
1124.94	442.063
1125.97	441.841
1127	441.181
1128.04	437.051
1129.07	438.122
1130.1	438.871
1131.13	440.679
1132.17	442.699
1133.2	445.302
1134.23	448.252
1135.26	452.372
1136.29	455.061
1137.32	460.603
1138.35	461.724
1139.38	471.2
1140.41	473.633
1141.44	475.476
1142.47	477.108
1143.5	477.373
1144.53	476.865
1145.56	474.704
1146.59	463.321
1147.61	459.572
1148.64	461.061
1149.67	468.848
1150.7	475.814
1151.72	485
1152.75	489.133
1153.77	493.8
1154.8	496.6
1155.83	499.594
1156.85	498.111
1157.88	493.764
1158.9	486.394
1159.93	478.947
1160.95	469.807
1161.97	461.73
1163	453.202
1164.02	445.019
1165.04	438.096
1166.07	432.126
1167.09	427.439
1168.11	424.361
1169.13	421.582
1170.16	421.435
1171.18	423.004
1172.2	423.474
1173.22	425.285
1174.24	427.759
1175.26	430.446
1176.28	433.266
1177.3	436.211
1178.32	439.186
1179.34	441.753
1180.36	444.528
1181.38	447.051
1182.4	449.16
1183.41	450.358
1184.43	450.943
1185.45	451.064
1186.47	450.792
1187.48	449.791
1188.5	447.198
1189.52	444.11
1190.53	440.456
1191.55	435.852
1192.56	430.946
1193.58	426.161
1194.59	421.31
1195.61	416.714
1196.62	413.192
1197.64	408.678
1198.65	403.98
1199.67	398.572
1200.68	394.957
1201.69	393.652
1202.71	393.983
1203.72	395.341
1204.73	397.55
1205.74	400.627
1206.76	402.342
1207.77	401.728
1208.78	401.341
1209.79	401.335
1210.8	401.681
1211.81	402.479
1212.82	403.335
1213.83	404.425
1214.84	406.11
1215.85	408.194
1216.86	410.435
1217.87	408.975
1218.88	406.559
1219.88	404.52
1220.89	403.723
1221.9	403.046
1222.91	402.003
1223.92	401.263
1224.92	400.504
1225.93	398.936
1226.93	396.761
1227.94	393.559
1228.95	390.095
1229.95	386.712
1230.96	382.921
1231.96	379.367
1232.97	376.148
1233.97	373.172
1234.98	370.125
1235.98	367.44
1236.98	363.849
1237.99	361.231
1238.99	359.211
1239.99	357.752
1241	356.736
1242	356.167
1243	355.902
1244	356.135
1245	355.681
1246	354.65
1247.01	353.17
1248.01	351.215
1249.01	349.885
1250.01	348.046
1251.01	347.541
1252.01	347.666
1253	348.134
1254	348.629
1255	349.595
1256	351.746
1257	352.309
1258	351.986
1258.99	351.495
1259.99	350.864
1260.99	350.209
1261.99	349.427
1262.98	348.54
1263.98	347.46
1264.98	346.463
1265.97	345.052
1266.97	343.289
1267.96	341.663
1268.96	340.402
1269.95	339.528
1270.95	338.792
1271.94	338.13
1272.93	337.042
1273.93	336.708
1274.92	337.24
1275.91	337.913
1276.91	338.405
1277.9	339.098
1278.89	339.882
1279.88	340.887
1280.87	342.222
1281.87	344.317
1282.86	346.06
1283.85	347.834
1284.84	348.786
1285.83	349.17
1286.82	349.091
1287.81	348.528
1288.8	347.537
1289.79	346.029
1290.78	344.239
1291.76	343.042
1292.75	342.042
1293.74	339.434
1294.73	336.348
1295.72	333.693
1296.7	331.233
1297.69	328.727
1298.68	326.292
1299.66	324.776
1300.65	323.104
1301.64	323.455
1302.62	324.214
1303.61	324.05
1304.59	323.838
1305.58	323.565
1306.56	322.866
1307.55	321.931
1308.53	321.115
1309.51	320.626
1310.5	320.807
1311.48	320.485
1312.46	319.72
1313.45	318.438
1314.43	317.332
1315.41	320.333
1316.39	322.731
1317.38	327.748
1318.36	333.195
1319.34	339.728
1320.32	344.64
1321.3	347.582
1322.28	350.504
1323.26	353.131
1324.24	354.69
1325.22	355.136
1326.2	354.531
1327.18	352.955
1328.16	350.305
1329.13	346.58
1330.11	342.118
1331.09	337.264
1332.07	331.732
1333.04	324.553
1334.02	319.431
1335	317.162
1335.97	313.33
1336.95	310.607
1337.93	311.671
1338.9	309.902
1339.88	306.446
1340.85	305.143
1341.83	302.728
1342.8	302.19
1343.78	302.462
1344.75	302.121
1345.72	301.526
1346.7	300.444
1347.67	301.426
1348.65	302.175
1349.62	302.601
1350.59	302.634
1351.56	302.095
1352.53	301.937
1353.51	302.044
1354.48	299.8
1355.45	298.051
1356.42	296.161
1357.39	294.05
1358.36	291.58
1359.33	288.844
1360.3	285.808
1361.27	283.039
1362.24	280.037
1363.21	277.688
1364.18	276.2
1365.14	275.338
1366.11	275.134
1367.08	275.336
1368.05	275.851
1369.02	276.552
1369.98	277.427
1370.95	278.515
1371.92	279.906
1372.88	281.569
1373.85	283.475
1374.81	284.3
1375.78	282.137
1376.74	277.931
1377.71	273.738
1378.68	270.538
1379.64	268.487
1380.6	267.553
1381.57	267.993
1382.53	269.168
1383.49	269.692
1384.46	273.082
1385.42	275.611
1386.38	277.526
1387.34	277.74
1388.31	276.827
1389.27	275.839
1390.23	274.924
1391.19	274.005
1392.15	273.137
1393.11	272.722
1394.07	272.304
1395.03	271.965
1395.99	270.556
1396.95	269.048
1397.91	267.695
1398.87	266.481
1399.83	265.405
1400.79	264.515
1401.75	263.676
1402.7	262.943
1403.66	262.284
1404.62	261.662
1405.58	261.28
1406.53	260.972
1407.49	260.853
1408.45	260.801
1409.4	260.822
1410.36	260.083
1411.31	259.108
1412.27	258.391
1413.23	258.181
1414.18	258.151
1415.13	257.707
1416.09	257.317
1417.04	256.273
1418	255.583
1418.95	255.125
1419.9	254.923
1420.86	254.849
1421.81	255.226
1422.76	255.572
1423.71	256.003
1424.67	256.291
1425.62	256.522
1426.57	256.277
1427.52	256.468
1428.47	257.039
1429.42	258.519
1430.37	260.148
1431.32	261.924
1432.27	263.623
1433.22	265.193
1434.17	266.559
1435.12	267.366
1436.07	267.632
1437.02	267.664
1437.96	267.572
1438.91	267.177
1439.86	266.586
1440.81	265.684
1441.75	264.488
1442.7	262.113
1443.65	260.108
1444.59	258.23
1445.54	255.708
1446.49	253.714
1447.43	252.12
1448.38	251.004
1449.32	250.239
1450.27	250.009
1451.21	250.255
1452.15	249.688
1453.1	248.462
1454.04	247.152
1454.98	246.6
1455.93	246.487
1456.87	246.247
1457.81	245.56
1458.76	240.647
1459.7	237.71
1460.64	235.281
1461.58	233.348
1462.52	231.427
1463.46	229.532
1464.4	228.261
1465.34	227.895
1466.28	229.301
1467.22	230.345
1468.16	231.361
1469.1	232.316
1470.04	232.814
1470.98	233.146
1471.92	233.288
1472.86	233.51
1473.8	233.666
1474.73	233.917
1475.67	234.141
1476.61	234.473
1477.55	234.801
1478.48	235.202
1479.42	233.978
1480.36	232.748
1481.29	231.584
1482.23	231.545
1483.16	235.467
1484.1	236.823
1485.03	237.996
1485.97	238.946
1486.9	239.643
1487.84	240.097
1488.77	240.321
1489.7	240.089
1490.64	239.639
1491.57	238.872
1492.5	237.653
1493.44	236.007
1494.37	234.293
1495.3	232.535
1496.23	230.835
1497.16	230.002
1498.09	229.249
1499.02	228.71
1499.96	228.656
1500.89	228.863
1501.82	229.142
1502.75	229.018
1503.68	228.801
1504.61	228.674
1505.53	229.113
1506.46	230.12
1507.39	231.495
1508.32	233.389
1509.25	235.675
1510.18	238.524
1511.1	241.968
1512.03	245.774
1512.96	250.222
1513.88	255.289
1514.81	262.182
1515.74	269.399
1516.66	276.667
1517.59	284.003
1518.51	291.133
1519.44	297.933
1520.36	303.981
1521.29	309.033
1522.21	312.819
1523.14	315.299
1524.06	316.341
1524.98	311.508
1525.91	310.097
1526.83	308.406
1527.75	305.669
1528.68	302.186
1529.6	298.029
1530.52	293.382
1531.44	288.387
1532.36	283.262
1533.29	277.927
1534.21	272.503
1535.13	267.178
1536.05	261.999
1536.97	256.744
1537.89	251.526
1538.81	246.57
1539.73	242.304
1540.65	238.97
1541.56	236.429
1542.48	234.493
1543.4	233.221
1544.32	232.745
1545.24	232.838
1546.16	233.366
1547.07	234.478
1547.99	235.105
1548.91	234.699
1549.82	234.4
1550.74	233.92
1551.66	233.255
1552.57	231.682
1553.49	230.732
1554.4	229.198
1555.32	227.037
1556.23	224.642
1557.15	222.114
1558.06	219.471
1558.97	216.867
1559.89	214.841
1560.8	210.846
1561.71	207.816
1562.63	204.282
1563.54	202.082
1564.45	200.701
1565.36	199.635
1566.28	198.987
1567.19	198.835
1568.1	198.955
1569.01	199.621
1569.92	198.434
1570.83	197.436
1571.74	196.558
1572.65	196.195
1573.56	194.739
1574.47	194.501
1575.38	194.017
1576.29	193.562
1577.2	193.467
1578.11	193.946
1579.01	194.407
1579.92	194.806
1580.83	195.1
1581.74	195.38
1582.64	195.669
1583.55	195.816
1584.46	195.933
1585.36	195.909
1586.27	195.799
1587.18	195.861
1588.08	195.833
1588.99	195.62
1589.89	195.298
1590.8	195.155
1591.7	194.835
1592.61	194.508
1593.51	194.231
1594.41	194.212
1595.32	194.544
1596.22	195.058
1597.12	194.96
1598.03	194.409
1598.93	194.006
1599.83	194.399
1600.73	195.648
1601.64	197.265
1602.54	199.069
1603.44	201.084
1604.34	202.94
1605.24	204.495
1606.14	205.756
1607.04	206.536
1607.94	206.532
1608.84	205.754
1609.74	204.963
1610.64	203.956
1611.54	202.554
1612.44	201.241
1613.33	199.79
1614.23	198.895
1615.13	197.799
1616.03	197.609
1616.92	197.503
1617.82	197.436
1618.72	197.295
1619.61	196.561
1620.51	195.535
1621.41	194.412
1622.3	193.314
1623.2	192.278
1624.09	191.302
1624.99	190.316
1625.88	189.314
1626.78	188.377
1627.67	187.662
1628.57	187.45
1629.46	187.695
1630.35	188.031
1631.25	188.459
1632.14	188.821
1632.85	188.943
1633.78	188.64
1634.71	188.137
1635.64	187.598
1636.57	186.765
1637.5	185.968
1638.42	185.094
1639.35	184.256
1640.28	183.46
1641.21	182.702
1642.13	182.182
1643.06	181.764
1643.99	181.489
1644.91	181.414
1645.84	181.42
1646.77	181.732
1647.69	182.235
1648.62	182.898
1649.54	183.405
1650.47	183.359
1651.39	184.389
1652.32	185.113
1653.24	185.328
1654.17	185.064
1655.09	184.243
1656.01	182.601
1656.94	180.427
1657.86	178.365
1658.78	176.63
1659.71	175.22
1660.63	173.965
1661.55	173.114
1662.47	174.298
1663.4	174.231
1664.32	174.256
1665.24	174.342
1666.16	174.469
1667.08	174.579
1668	174.717
1668.92	174.941
1669.84	175.409
1670.76	175.763
1671.68	176.042
1672.6	174.986
1673.52	173.737
1674.44	172.451
1675.36	171.288
1676.28	170.517
1677.2	169.842
1678.12	169.281
1679.03	169.01
1679.95	168.919
1680.87	168.965
1681.79	169.038
1682.7	169.208
1683.62	169.33
1684.54	169.086
1685.45	169.249
1686.37	169.91
1687.29	170.924
1688.2	171.271
1689.12	171.22
1690.03	170.826
1690.95	170.376
1691.86	169.728
1692.78	168.757
1693.69	167.562
1694.61	166.348
1695.52	165.849
1696.43	166.024
1697.35	165.523
1698.26	164.391
1699.17	162.892
1700.09	161.49
1701	160.383
1701.91	159.494
1702.82	158.236
1703.74	156.536
1704.65	154.089
1705.56	154.015
1706.47	154.55
1707.38	155.197
1708.29	155.919
1709.2	156.799
1710.11	157.812
1711.02	158.801
1711.93	159.638
1712.84	160.002
1713.75	160.105
1714.66	159.55
1715.57	158.777
1716.48	158.092
1717.39	157.446
1718.3	156.605
1719.21	155.626
1720.11	154.667
1721.02	153.807
1721.93	153.168
1722.84	152.831
1723.74	152.733
1724.65	152.809
1725.56	153.302
1726.46	153.822
1727.37	154.337
1728.28	154.611
1729.18	154.47
1730.09	154.073
1730.99	153.472
1731.9	152.748
1732.8	151.844
1733.71	150.88
1734.61	149.97
1735.52	149.125
1736.42	148.416
1737.32	147.943
1738.23	147.621
1739.13	147.487
1740.03	147.201
1740.94	146.959
1741.84	146.581
1742.74	146.82
1743.64	147.293
1744.54	147.682
1745.45	147.757
1746.35	147.824
1747.25	148.816
1748.15	148.793
1749.05	148.472
1749.95	148.11
1750.85	147.713
1751.75	147.298
1752.65	146.936
1753.55	146.63
1754.45	146.301
1755.35	146.023
1756.25	145.72
1757.15	145.314
1758.05	145.237
1758.94	145.219
1759.84	145.177
1760.74	145.163
1761.64	145.109
1762.53	145.007
1763.43	144.906
1764.33	144.723
1765.23	144.566
1766.12	144.249
1767.02	143.65
1767.91	143.024
1768.81	142.309
1769.71	141.59
1770.6	140.849
1771.5	140.419
1772.39	140.096
1773.29	140.386
1774.18	140.503
1775.07	140.437
1775.97	140.41
1776.86	140.146
1777.76	139.91
1778.65	139.719
1779.54	139.523
1780.44	140.007
1781.33	140.631
1782.22	141.241
1783.11	141.798
1784.01	141.757
1784.9	141.565
1785.79	141.132
1786.68	140.752
1787.57	140.437
1788.46	141.497
1789.35	142.158
1790.24	142.602
1791.13	142.658
1792.02	142.208
1792.91	141.39
1793.8	140.725
1794.69	139.915
1795.58	138.939
1796.47	137.715
1797.36	136.429
1798.25	135.133
1799.14	134.868
