Acq. time (s)=	15
Accumulations=	2
Range (cm-¹)=	600...1800
Windows=	2
Autofocus=	Off
AutoExposure=	Off
Spike filter=	Multiple accum.
Delay time (s)=	1
Binning=	1
Readout mode=	Signal
DeNoise=	Standard
ICS correction=	Off
Dark correction=	Off
Inst. Process=	Off
Instrument=	XploRA
Detector=	Syncerity
Objective=	x20LWD
Grating=	1200 gr/mm
Filter=	25%
Laser (nm)=	785 
Slit (µm)=	100 
Hole (µm)=	300 
Laser pol=	None
Raman pol=	None
Output=	Camera
StageXY=	Marzhauser
StageZ=	
X (µm)=	1078.9
Y (µm)=	-4942.5
Project=	
Sample=	
Site=	
Title=	Cmm1 s-m
Remark=	
Date=	22.07.2022 06:41
Acquired=	22.07.2022 06:41:46
600.839	799.337
602.009	821.444
603.178	830.649
604.347	840.84
605.516	850.393
606.684	862.865
607.852	872.853
609.02	883.318
610.187	894.737
611.355	909.577
612.521	928.514
613.688	943.996
614.854	959.577
616.02	972.055
617.185	980.63
618.351	987.793
619.516	993.456
620.681	1000.71
621.846	1008.22
623.009	1015.88
624.174	1025.24
625.337	1030.35
626.501	1035.51
627.664	1041.24
628.826	1045.91
629.988	1048.51
631.151	1051.97
632.313	1055.95
633.474	1059.63
634.635	1063.56
635.797	1067.18
636.958	1071.44
638.117	1075.14
639.278	1079.56
640.437	1086.39
641.597	1090.76
642.756	1093.8
643.915	1094.67
645.074	1095.69
646.233	1091.11
647.391	1088.06
648.548	1083.5
649.706	1080.06
650.863	1081.75
652.02	1085.07
653.176	1090.91
654.333	1089.3
655.489	1090.13
656.645	1090.86
657.8	1090.31
658.955	1092.96
660.11	1095.04
661.264	1096.93
662.419	1099.44
663.573	1102
664.727	1104.66
665.88	1107.14
667.033	1108.19
668.186	1108.74
669.338	1108.99
670.491	1108.9
671.643	1109.91
672.794	1110.94
673.945	1111.39
675.096	1111.08
676.247	1109.63
677.398	1110.61
678.548	1112
679.698	1113.44
680.847	1115.52
681.997	1118.03
683.146	1120.96
684.294	1124.31
685.443	1129.24
686.591	1131
687.739	1130.6
688.887	1129.68
690.034	1126.97
691.181	1123.38
692.328	1120.31
693.474	1117.48
694.62	1115.28
695.766	1112.97
696.911	1110.68
698.057	1107.38
699.202	1102.38
700.346	1101.61
701.49	1103.94
702.635	1106.63
703.779	1110.41
704.922	1111.66
706.065	1112.3
707.208	1111.68
708.351	1108.15
709.493	1102.46
710.635	1087.3
711.776	1082.07
712.918	1080.72
714.059	1080.25
715.2	1081.73
716.341	1083.58
717.481	1085.46
718.621	1086.46
719.761	1083.9
720.9	1082.54
722.04	1082.48
723.178	1081.72
724.317	1079.83
725.455	1077
726.594	1076.52
727.731	1076.62
728.868	1076.61
730.005	1077.28
731.142	1078.07
732.279	1078.75
733.415	1080.19
734.551	1082.11
735.686	1083.6
736.822	1086.5
737.957	1089.88
739.092	1092.29
740.226	1094.2
741.36	1093.81
742.495	1092.38
743.628	1090.54
744.762	1088.14
745.895	1084.75
747.027	1081.82
748.16	1075.26
749.292	1071.51
750.423	1066.76
751.555	1067.22
752.686	1066.09
753.817	1063.95
754.949	1061.53
756.079	1058.98
757.209	1056.16
758.339	1052.79
759.469	1048.91
760.597	1045.35
761.727	1038.58
762.856	1035.13
763.984	1030.91
765.112	1026.08
766.24	1021.5
767.367	1016.95
768.494	1012.46
769.622	1008.25
770.749	1003.45
771.874	997.97
773.001	992.199
774.127	987.615
775.253	983.042
776.377	979.617
777.503	978.326
778.627	977.438
779.751	977.426
780.876	978.281
782	978.347
783.123	979.339
784.246	980.25
785.37	981.224
786.492	981.143
787.614	980.906
788.737	980.88
789.858	980.936
790.979	979.682
792.101	978.01
793.222	974.524
794.342	971.214
795.463	965.243
796.583	958.902
797.702	952.811
798.822	948.03
799.942	943.509
801.06	939.767
802.179	936.529
803.297	933.44
804.415	930.779
805.533	929.236
806.651	927.863
807.768	925.504
808.885	923.282
810.001	922.026
811.118	922.45
812.233	921.925
813.349	921.243
814.464	919.814
815.58	918.643
816.695	918.999
817.809	918.484
818.924	918.802
820.038	918.199
821.152	916.638
822.265	915.732
823.378	915.272
824.491	913.545
825.604	912.351
826.716	910.231
827.828	909.185
828.94	908.012
830.051	907.56
831.162	908.372
832.273	909.468
833.383	909.94
834.494	910.327
835.604	910.474
836.714	909.669
837.823	909.779
838.932	910.087
840.041	908.951
841.15	907.043
842.258	904.329
843.366	902.34
844.474	900.694
845.581	898.546
846.688	894.801
847.795	890.517
848.901	887.395
850.008	885.091
851.115	883.353
852.22	880.588
853.325	877.99
854.43	875.016
855.536	871.756
856.64	869.47
857.745	866.059
858.848	863.984
859.952	862.955
861.055	862.19
862.158	861.004
863.261	860.318
864.364	861.156
865.466	859.722
866.568	859.255
867.67	856.839
868.771	847.077
869.873	835.39
870.973	839.128
872.074	844.662
873.174	848.352
874.274	856.43
875.374	853.291
876.473	848.699
877.572	844.493
878.671	840.56
879.77	837.92
880.868	834.112
881.966	830.952
883.064	827.891
884.161	826.399
885.258	824.624
886.356	823.706
887.452	822.172
888.548	821.556
889.645	820.47
890.74	818.626
891.836	817.901
892.931	817.661
894.025	817.273
895.12	816.642
896.214	816.58
897.308	815.654
898.402	815.599
899.495	815.29
900.588	814.866
901.681	812.836
902.774	811.487
903.866	811.094
904.958	811.516
906.05	813.343
907.142	815.157
908.233	817.569
909.324	820.136
910.414	822.432
911.504	824.929
912.594	827.597
913.684	826.664
914.774	825.585
915.863	824.338
916.952	823.037
918.041	821.493
919.129	817.555
920.217	812.452
921.305	807.563
922.392	800.855
923.48	794.128
924.567	788.582
925.653	783.091
926.74	778.907
927.825	775.955
928.911	773.257
929.997	771.865
931.082	771.993
932.166	771.488
933.252	772.685
934.336	772.158
935.42	770.791
936.504	769.074
937.587	766.577
938.671	763.443
939.753	760.894
940.836	758.62
941.919	756.745
943	755.181
944.082	753.985
945.163	753.694
946.245	752.365
947.326	752.072
948.406	752.09
949.487	750.25
950.567	747.184
951.647	743.06
952.727	739.539
953.805	736.696
954.885	735.664
955.964	735.615
957.042	735.155
958.12	732.82
959.198	730.639
960.276	728.7
961.352	726.679
962.43	724.445
963.507	721.797
964.583	721.31
965.659	723.471
966.735	725.285
967.81	720.674
968.885	717.14
969.961	714.616
971.036	709.478
972.11	715.376
973.184	723.561
974.258	726.11
975.332	728.248
976.405	726.011
977.478	727.593
978.551	732.508
979.624	736.881
980.696	740.187
981.767	743.76
982.839	746.611
983.911	748.718
984.982	750.687
986.052	752.441
987.123	752.249
988.193	751.729
989.263	751.41
990.333	750.842
991.403	749.935
992.471	749.146
993.54	748.164
994.608	746.608
995.677	743.992
996.745	741.828
997.812	740.937
998.88	740.157
999.947	738.875
1001.01	737.556
1002.08	735.157
1003.15	733.15
1004.21	729.891
1005.28	726.152
1006.34	722.729
1007.41	719.247
1008.47	714.719
1009.54	710.18
1010.6	704.246
1011.67	699.079
1012.73	694.205
1013.79	689.58
1014.86	685.977
1015.92	681.871
1016.98	677.905
1018.05	675.122
1019.11	671.5
1020.17	667.448
1021.23	665.144
1022.29	662.639
1023.35	660.303
1024.41	659.455
1025.47	658.455
1026.53	657.276
1027.59	656.966
1028.65	657.057
1029.71	656.453
1030.77	655.341
1031.83	653.985
1032.89	652.648
1033.95	650.802
1035	649.565
1036.06	647.557
1037.12	645.437
1038.18	642.198
1039.23	640.034
1040.29	638.845
1041.35	638.604
1042.4	638.526
1043.46	638.884
1044.51	639.769
1045.57	641.188
1046.62	642.329
1047.68	644.205
1048.73	645.479
1049.79	644.547
1050.84	643.456
1051.89	642.132
1052.95	640.534
1054	638.796
1055.05	636.877
1056.1	634.7
1057.16	632.634
1058.21	630.717
1059.26	629.611
1060.31	629.947
1061.36	629.97
1062.41	628.893
1063.46	628.838
1064.51	628.609
1065.56	630.129
1066.61	631.057
1067.66	632.68
1068.71	631.164
1069.76	629.217
1070.81	626.675
1071.85	623.497
1072.9	618.903
1073.95	614.411
1075	610.447
1076.04	607.777
1077.09	605.664
1078.14	606.9
1079.18	607.257
1080.23	607.362
1081.27	608.451
1082.32	608.93
1083.36	608.314
1084.41	606.458
1085.45	604.645
1086.5	602.922
1087.54	601.298
1088.59	599.762
1089.63	598.451
1090.67	597.226
1091.71	596.194
1092.76	595.414
1093.8	594.731
1094.84	594.349
1095.88	594.049
1096.92	593.552
1097.97	593.767
1099.01	594.062
1100.05	594.529
1101.09	595.024
1102.13	595.538
1103.17	596.051
1104.21	596.215
1105.25	596.427
1106.28	596.418
1107.32	595.923
1108.36	595.29
1109.4	594.48
1110.44	593.598
1111.47	592.526
1112.51	591.183
1113.55	589.628
1114.59	588.138
1115.62	585.635
1116.66	582.686
1117.69	579.297
1118.73	576.336
1119.77	574.128
1120.8	572.224
1121.84	570.775
1122.87	569.568
1123.9	569.472
1124.94	570.02
1125.97	564.394
1127	569.1
1128.04	568.179
1129.07	576.202
1130.1	577.672
1131.13	571.387
1132.17	576.199
1133.2	583.413
1134.23	585.401
1135.26	587.411
1136.29	589.828
1137.32	592.498
1138.35	596.028
1139.38	599.591
1140.41	602.271
1141.44	603.349
1142.47	605.718
1143.5	607.456
1144.53	610.253
1145.56	611.734
1146.59	614.049
1147.61	614.412
1148.64	618.218
1149.67	624.336
1150.7	631.557
1151.72	637.269
1152.75	642.669
1153.77	648.643
1154.8	654.744
1155.83	655.134
1156.85	652.58
1157.88	648.32
1158.9	642.164
1159.93	633.629
1160.95	621.67
1161.97	609.22
1163	597.338
1164.02	587.976
1165.04	579.154
1166.07	571.545
1167.09	564.172
1168.11	559.322
1169.13	554.565
1170.16	552.147
1171.18	551.401
1172.2	552.091
1173.22	554.024
1174.24	557.067
1175.26	560.404
1176.28	563.878
1177.3	567.304
1178.32	570.177
1179.34	573.121
1180.36	575.607
1181.38	577.488
1182.4	578.55
1183.41	578.709
1184.43	577.97
1185.45	576.269
1186.47	573.73
1187.48	570.578
1188.5	566.328
1189.52	561.032
1190.53	555.573
1191.55	549.448
1192.56	543.224
1193.58	537.006
1194.59	531.3
1195.61	526.006
1196.62	521.553
1197.64	518.878
1198.65	517.124
1199.67	516.052
1200.68	515.163
1201.69	513.775
1202.71	513.369
1203.72	513.36
1204.73	515.088
1205.74	516.23
1206.76	517.729
1207.77	518.831
1208.78	520.89
1209.79	523.14
1210.8	524.935
1211.81	525.357
1212.82	525.574
1213.83	525.739
1214.84	525.852
1215.85	526.086
1216.86	526.514
1217.87	527.17
1218.88	527.256
1219.88	527.538
1220.89	527.161
1221.9	526.956
1222.91	529.593
1223.92	529.126
1224.92	527.837
1225.93	525.672
1226.93	522.974
1227.94	519.849
1228.95	516.424
1229.95	512.447
1230.96	509.78
1231.96	505.421
1232.97	500.84
1233.97	496.612
1234.98	492.855
1235.98	489.818
1236.98	486.915
1237.99	484.332
1238.99	481.584
1239.99	478.916
1241	476.285
1242	473.746
1243	471.41
1244	470.149
1245	469.49
1246	468.373
1247.01	468.15
1248.01	467.53
1249.01	466.068
1250.01	464.608
1251.01	463.181
1252.01	461.786
1253	460.746
1254	459.823
1255	459.586
1256	459.234
1257	459.079
1258	459.148
1258.99	459.386
1259.99	459.73
1260.99	460.259
1261.99	460.623
1262.98	460.909
1263.98	461.033
1264.98	460.488
1265.97	459.847
1266.97	458.671
1267.96	457.028
1268.96	454.825
1269.95	451.98
1270.95	449.068
1271.94	446.318
1272.93	444.565
1273.93	443.504
1274.92	442.637
1275.91	442.045
1276.91	441.777
1277.9	441.936
1278.89	442.677
1279.88	445.472
1280.87	447.217
1281.87	447.729
1282.86	446.554
1283.85	448.812
1284.84	450.905
1285.83	454.03
1286.82	455.824
1287.81	455.067
1288.8	453.957
1289.79	451.735
1290.78	449.78
1291.76	444.39
1292.75	437.142
1293.74	435.095
1294.73	433.034
1295.72	431.641
1296.7	430.298
1297.69	429.294
1298.68	428.78
1299.66	428.738
1300.65	430.362
1301.64	431.565
1302.62	432.169
1303.61	432.532
1304.59	432.457
1305.58	431.811
1306.56	430.581
1307.55	428.613
1308.53	425.618
1309.51	421.534
1310.5	417.594
1311.48	415.379
1312.46	414.329
1313.45	414.345
1314.43	415.299
1315.41	417.155
1316.39	419.834
1317.38	423.385
1318.36	427.747
1319.34	432.668
1320.32	438.777
1321.3	444.914
1322.28	450.153
1323.26	453.991
1324.24	456.462
1325.22	457.609
1326.2	457.293
1327.18	455.12
1328.16	451.289
1329.13	446.209
1330.11	441.205
1331.09	435.966
1332.07	430.561
1333.04	425.504
1334.02	420.932
1335	416.998
1335.97	413.778
1336.95	411.9
1337.93	410.793
1338.9	410.166
1339.88	409.88
1340.85	409.766
1341.83	408.652
1342.8	407.478
1343.78	406.931
1344.75	406.82
1345.72	406.524
1346.7	406.057
1347.67	405.043
1348.65	403.813
1349.62	402.478
1350.59	401.085
1351.56	400.331
1352.53	400.101
1353.51	397.801
1354.48	395.025
1355.45	392.087
1356.42	388.896
1357.39	386.099
1358.36	383.415
1359.33	380.835
1360.3	378.904
1361.27	377.688
1362.24	376.994
1363.21	376.72
1364.18	376.751
1365.14	377.072
1366.11	377.145
1367.08	378.274
1368.05	378.16
1369.02	378.041
1369.98	377.44
1370.95	377.177
1371.92	375.686
1372.88	374.648
1373.85	374.331
1374.81	374.042
1375.78	373.599
1376.74	373.948
1377.71	374.558
1378.68	374.198
1379.64	373.359
1380.6	373.105
1381.57	373.029
1382.53	372.933
1383.49	371.906
1384.46	371.2
1385.42	370.87
1386.38	370.191
1387.34	369.42
1388.31	367.727
1389.27	365.89
1390.23	363.7
1391.19	361.809
1392.15	360.479
1393.11	359.289
1394.07	357.9
1395.03	356.157
1395.99	354.229
1396.95	352.445
1397.91	350.745
1398.87	349.191
1399.83	347.85
1400.79	346.886
1401.75	346.147
1402.7	344.612
1403.66	342.086
1404.62	340.255
1405.58	339.126
1406.53	343.643
1407.49	344.534
1408.45	344.403
1409.4	344.563
1410.36	344.845
1411.31	345.109
1412.27	344.98
1413.23	344.369
1414.18	343.151
1415.13	342.74
1416.09	342.737
1417.04	343.142
1418	344.353
1418.95	343.838
1419.9	342.852
1420.86	342.94
1421.81	343.356
1422.76	344.563
1423.71	346.172
1424.67	347.672
1425.62	349.456
1426.57	349.13
1427.52	347.553
1428.47	345.689
1429.42	344.789
1430.37	344.391
1431.32	344.291
1432.27	344.821
1433.22	346.019
1434.17	347.768
1435.12	350.613
1436.07	352.622
1437.02	352.379
1437.96	353.109
1438.91	352.802
1439.86	353.112
1440.81	353.418
1441.75	348.98
1442.7	346.29
1443.65	342.678
1444.59	339.17
1445.54	336.044
1446.49	333.337
1447.43	331.117
1448.38	329.445
1449.32	328.123
1450.27	327.843
1451.21	328.266
1452.15	328.792
1453.1	329.374
1454.04	329.995
1454.98	329.771
1455.93	329.05
1456.87	328.892
1457.81	328.375
1458.76	327.687
1459.7	326.161
1460.64	324.462
1461.58	322.792
1462.52	321.226
1463.46	319.772
1464.4	319.137
1465.34	318.572
1466.28	318.271
1467.22	318.263
1468.16	317.872
1469.1	317.312
1470.04	316.984
1470.98	315.775
1471.92	315.848
1472.86	317.383
1473.8	318.424
1474.73	317.229
1475.67	314.959
1476.61	312.949
1477.55	311.304
1478.48	310.045
1479.42	309.132
1480.36	308.669
1481.29	308.849
1482.23	309.538
1483.16	310.62
1484.1	311.977
1485.03	313.6
1485.97	315.573
1486.9	317.571
1487.84	318.997
1488.77	319.503
1489.7	315.665
1490.64	311.563
1491.57	307.897
1492.5	304.139
1493.44	303.789
1494.37	304.829
1495.3	311.762
1496.23	310.469
1497.16	309.396
1498.09	308.267
1499.02	307.452
1499.96	306.851
1500.89	306.732
1501.82	306.725
1502.75	307.003
1503.68	307.883
1504.61	309.086
1505.53	310.657
1506.46	312.43
1507.39	314.637
1508.32	316.888
1509.25	319.581
1510.18	322.57
1511.1	325.855
1512.03	329.343
1512.96	333.211
1513.88	337.563
1514.81	342.302
1515.74	347.679
1516.66	353.474
1517.59	360.86
1518.51	368.529
1519.44	376.632
1520.36	385.299
1521.29	394.303
1522.21	403.409
1523.14	411.05
1524.06	416.128
1524.98	418.083
1525.91	416.952
1526.83	413.175
1527.75	407.12
1528.68	392.506
1529.6	383.735
1530.52	379.599
1531.44	378.04
1532.36	380.66
1533.29	374.499
1534.21	365.097
1535.13	348.597
1536.05	350.363
1536.97	346.681
1537.89	337.295
1538.81	323.186
1539.73	314.544
1540.65	308.865
1541.56	304.83
1542.48	302.515
1543.4	302.244
1544.32	302.2
1545.24	301.976
1546.16	301.94
1547.07	302.186
1547.99	302.365
1548.91	302.513
1549.82	302.523
1550.74	301.545
1551.66	299.951
1552.57	296.527
1553.49	293.283
1554.4	290.146
1555.32	287.156
1556.23	284.252
1557.15	281.688
1558.06	279.376
1558.97	277.258
1559.89	275.266
1560.8	273.304
1561.71	271.574
1562.63	269.989
1563.54	268.57
1564.45	267.574
1565.36	266.164
1566.28	264.773
1567.19	263.569
1568.1	262.218
1569.01	260.995
1569.92	260.038
1570.83	259.404
1571.74	258.297
1572.65	257.297
1573.56	256.676
1574.47	256.799
1575.38	256.827
1576.29	256.361
1577.2	255.757
1578.11	255.183
1579.01	254.714
1579.92	254.205
1580.83	253.848
1581.74	253.486
1582.64	252.836
1583.55	252.067
1584.46	251.339
1585.36	250.861
1586.27	250.71
1587.18	250.981
1588.08	250.69
1588.99	250.436
1589.89	250.146
1590.8	249.815
1591.7	249.721
1592.61	249.729
1593.51	250.086
1594.41	250.368
1595.32	251.09
1596.22	251.993
1597.12	253.009
1598.03	254.105
1598.93	256.488
1599.83	257.645
1600.73	258.603
1601.64	259.348
1602.54	258.579
1603.44	258.46
1604.34	258.12
1605.24	257.595
1606.14	257.168
1607.04	257.413
1607.94	257.463
1608.84	256.729
1609.74	256.226
1610.64	255.725
1611.54	254.985
1612.44	254.111
1613.33	253.106
1614.23	252.294
1615.13	251.445
1616.03	250.68
1616.92	250.046
1617.82	249.798
1618.72	249.952
1619.61	250.033
1620.51	250.385
1621.41	250.854
1622.3	251.217
1623.2	250.7
1624.09	249.824
1624.99	248.917
1625.88	248.027
1626.78	247.148
1627.67	246.041
1628.57	244.851
1629.46	244.086
1630.35	243.536
1631.25	243.119
1632.14	243.114
1632.85	242.942
1633.78	242.602
1634.71	241.938
1635.64	240.613
1636.57	239.633
1637.5	239.068
1638.42	238.509
1639.35	238.039
1640.28	238.007
1641.21	237.592
1642.13	237.471
1643.06	237.678
1643.99	237.097
1644.91	236.197
1645.84	234.847
1646.77	234.791
1647.69	234.725
1648.62	234.932
1649.54	235.092
1650.47	235.004
1651.39	235.397
1652.32	235.082
1653.24	235.063
1654.17	235.549
1655.09	236.034
1656.01	236.523
1656.94	237.307
1657.86	235.956
1658.78	235.221
1659.71	233.63
1660.63	232.559
1661.55	231.993
1662.47	230.652
1663.4	229.299
1664.32	228.808
1665.24	229.184
1666.16	228.936
1667.08	228.162
1668	227.624
1668.92	227.415
1669.84	227.019
1670.76	226.587
1671.68	226.819
1672.6	226.675
1673.52	226.269
1674.44	226.294
1675.36	225.819
1676.28	225.421
1677.2	225.223
1678.12	224.86
1679.03	224.583
1679.95	223.912
1680.87	221.832
1681.79	220.93
1682.7	221.089
1683.62	221.175
1684.54	220.61
1685.45	220.109
1686.37	219.971
1687.29	219.624
1688.2	218.834
1689.12	218.326
1690.03	217.863
1690.95	219.437
1691.86	218.922
1692.78	218.62
1693.69	217.94
1694.61	216.874
1695.52	215.958
1696.43	214.951
1697.35	213.944
1698.26	213.249
1699.17	212.446
1700.09	211.981
1701	211.762
1701.91	214.331
1702.82	213.742
1703.74	212.176
1704.65	211.147
1705.56	210.103
1706.47	210.029
1707.38	209.91
1708.29	210.917
1709.2	211.413
1710.11	211.432
1711.02	210.991
1711.93	210.063
1712.84	209.299
1713.75	208.518
1714.66	207.062
1715.57	206.082
1716.48	205.072
1717.39	203.81
1718.3	202.312
1719.21	201.637
1720.11	201.219
1721.02	201.072
1721.93	200.861
1722.84	200.998
1723.74	201.237
1724.65	201.253
1725.56	200.962
1726.46	200.569
1727.37	200.051
1728.28	199.748
1729.18	199.826
1730.09	199.565
1730.99	200.145
1731.9	199.052
1732.8	198.23
1733.71	197.06
1734.61	196.336
1735.52	194.611
1736.42	194.15
1737.32	194.253
1738.23	194.946
1739.13	196.122
1740.03	196.832
1740.94	197.213
1741.84	197.383
1742.74	197.92
1743.64	196.104
1744.54	194.06
1745.45	192.695
1746.35	191.111
1747.25	190.452
1748.15	190.069
1749.05	189.713
1749.95	189.053
1750.85	188.417
1751.75	187.772
1752.65	187.303
1753.55	187.347
1754.45	188.684
1755.35	190.501
1756.25	190.986
1757.15	192.038
1758.05	191.792
1758.94	191.17
1759.84	190.741
1760.74	190.549
1761.64	189.719
1762.53	188.679
1763.43	187.671
1764.33	186.484
1765.23	185.734
1766.12	184.83
1767.02	183.706
1767.91	182.18
1768.81	180.516
1769.71	179.777
1770.6	180.089
1771.5	181.121
1772.39	182.375
1773.29	183.528
1774.18	183.78
1775.07	183.785
1775.97	184.169
1776.86	184.583
1777.76	185.02
1778.65	185.474
1779.54	185.242
1780.44	184.354
1781.33	183.378
1782.22	183.066
1783.11	182.303
1784.01	182.116
1784.9	182.187
1785.79	182.098
1786.68	181.921
1787.57	181.791
1788.46	181.409
1789.35	180.606
1790.24	179.739
1791.13	178.387
1792.02	177.361
1792.91	175.692
1793.8	174.576
1794.69	173.919
1795.58	173.487
1796.47	173.173
1797.36	171.603
1798.25	168.373
1799.14	166.611
