Acq. time (s)=	15
Accumulations=	2
Range (cm-¹)=	600...1800
Windows=	2
Autofocus=	Off
AutoExposure=	Off
Spike filter=	Multiple accum.
Delay time (s)=	1
Binning=	1
Readout mode=	Signal
DeNoise=	Standard
ICS correction=	Off
Dark correction=	Off
Inst. Process=	Off
Instrument=	XploRA
Detector=	Syncerity
Objective=	x20LWD
Grating=	1200 gr/mm
Filter=	25%
Laser (nm)=	785 
Slit (µm)=	100 
Hole (µm)=	300 
Laser pol=	None
Raman pol=	None
Output=	Camera
StageXY=	Marzhauser
StageZ=	
X (µm)=	1736.4
Y (µm)=	1362.3
Project=	
Sample=	
Site=	
Title=	Cmm1 s-m
Remark=	
Date=	22.07.2022 06:47
Acquired=	22.07.2022 06:47:38
600.839	290.892
602.009	297.772
603.178	304.79
604.347	310.736
605.516	315.94
606.684	320.168
607.852	323.871
609.02	327.199
610.187	330.282
611.355	333.554
612.521	337.173
613.688	339.755
614.854	342.024
616.02	343.843
617.185	345.42
618.351	347.678
619.516	350.088
620.681	352.681
621.846	355.175
623.009	358.777
624.174	362.041
625.337	365.43
626.501	368.631
627.664	371.321
628.826	373.685
629.988	376.018
631.151	378.091
632.313	379.95
633.474	381.203
634.635	382.19
635.797	382.67
636.958	382.424
638.117	382.499
639.278	383.375
640.437	384.623
641.597	386.735
642.756	388.097
643.915	389.894
645.074	391.195
646.233	392.863
647.391	394.369
648.548	394.992
649.706	395.261
650.863	395.405
652.02	395.001
653.176	394.305
654.333	393.976
655.489	393.539
656.645	394.117
657.8	394.939
658.955	396.059
660.11	397.575
661.264	399.795
662.419	402.079
663.573	404.26
664.727	405.98
665.88	406.895
667.033	408.214
668.186	410.069
669.338	411.809
670.491	412.499
671.643	413.883
672.794	414.985
673.945	415.647
675.096	415.705
676.247	416.972
677.398	418.847
678.548	420.462
679.698	422.269
680.847	424.183
681.997	426.874
683.146	429.029
684.294	431.349
685.443	433.504
686.591	436.31
687.739	438.98
688.887	440.241
690.034	440.71
691.181	441.509
692.328	441.363
693.474	440.459
694.62	440.183
695.766	439.543
696.911	439.178
698.057	438.704
699.202	437.697
700.346	436.603
701.49	435.206
702.635	434.209
703.779	433.657
704.922	432.93
706.065	431.893
707.208	430.695
708.351	430.819
709.493	430.499
710.635	430.746
711.776	431.121
712.918	431.246
714.059	431.921
715.2	432.113
716.341	432.635
717.481	433.768
718.621	434.122
719.761	433.579
720.9	432.899
722.04	432.783
723.178	432.414
724.317	430.91
725.455	430.276
726.594	429.521
727.731	427.433
728.868	426.427
730.005	426.841
731.142	426.643
732.279	427.427
733.415	429.002
734.551	430.415
735.686	432.851
736.822	436.08
737.957	439.407
739.092	442.439
740.226	445.275
741.36	447.131
742.495	449.819
743.628	449.986
744.762	448.127
745.895	445.357
747.027	442.095
748.16	438.71
749.292	435.538
750.423	432.25
751.555	429.641
752.686	427.993
753.817	425.194
754.949	422.481
756.079	420.671
757.209	418.675
758.339	417.939
759.469	416.388
760.597	414.881
761.727	412.8
762.856	411.203
763.984	408.905
765.112	407.122
766.24	404.997
767.367	403.091
768.494	400.559
769.622	399.701
770.749	398.876
771.874	397.569
773.001	396.067
774.127	395.392
775.253	395.453
776.377	395.246
777.503	395.275
778.627	395.345
779.751	395.398
780.876	395.342
782	395.011
783.123	394.744
784.246	393.922
785.37	393.488
786.492	392.154
787.614	390.71
788.737	388.43
789.858	386.112
790.979	383.745
792.101	382.622
793.222	380.146
794.342	378.028
795.463	376.454
796.583	375.435
797.702	374.56
798.822	373.592
799.942	373.827
801.06	374.314
802.179	373.73
803.297	373.961
804.415	373.652
805.533	373
806.651	373.149
807.768	372.984
808.885	371.942
810.001	371.423
811.118	370.844
812.233	370.051
813.349	369.258
814.464	369.09
815.58	368.82
816.695	368.63
817.809	369.654
818.924	370.82
820.038	370.469
821.152	370.546
822.265	370.205
823.378	370.064
824.491	369.205
825.604	368.612
826.716	367.626
827.828	366.975
828.94	365.903
830.051	364.316
831.162	363.566
832.273	363.578
833.383	362.824
834.494	361.888
835.604	360.895
836.714	360.129
837.823	358.513
838.932	354.71
840.041	353.699
841.15	353.52
842.258	353.359
843.366	354.575
844.474	355.053
845.581	355.622
846.688	357.188
847.795	356.88
848.901	356.694
850.008	354.914
851.115	353.02
852.22	351.098
853.325	349.367
854.43	348.354
855.536	347.765
856.64	347.196
857.745	347.064
858.848	346.806
859.952	346.483
861.055	346.259
862.158	346.357
863.261	347.527
864.364	347.395
865.466	347.677
866.568	347.262
867.67	346.353
868.771	345.055
869.873	340.776
870.973	337.899
872.074	335.563
873.174	332.537
874.274	330.231
875.374	328.623
876.473	327.9
877.572	328.281
878.671	328.437
879.77	328.825
880.868	328.833
881.966	329.078
883.064	329.575
884.161	329.505
885.258	329.708
886.356	329.361
887.452	330.213
888.548	330.517
889.645	330.914
890.74	331.131
891.836	331.052
892.931	330.43
894.025	330.208
895.12	329.958
896.214	329.233
897.308	329.224
898.402	329.405
899.495	329.088
900.588	328.886
901.681	328.477
902.774	327.598
903.866	327.638
904.958	327.392
906.05	328.015
907.142	328.772
908.233	330.207
909.324	331.057
910.414	331.665
911.504	332.789
912.594	333.797
913.684	334.25
914.774	335.213
915.863	337.244
916.952	337.225
918.041	338.704
919.129	338.845
920.217	337.546
921.305	335.49
922.392	333.11
923.48	330.35
924.567	326.909
925.653	322.928
926.74	319.256
927.825	315.262
928.911	312.594
929.997	312.16
931.082	310.272
932.166	309.951
933.252	308.751
934.336	306.748
935.42	304.692
936.504	302.412
937.587	300.586
938.671	299.838
939.753	298.527
940.836	297.185
941.919	295.84
943	295.117
944.082	294.567
945.163	294.439
946.245	296.81
947.326	296.868
948.406	296.879
949.487	296.922
950.567	296.747
951.647	296.535
952.727	296.701
953.805	296.076
954.885	295.642
955.964	295.097
957.042	294.272
958.12	293.045
959.198	292.566
960.276	291.726
961.352	290.132
962.43	289.16
963.507	289.236
964.583	288.93
965.659	288.879
966.735	288.547
967.81	288.73
968.885	288.252
969.961	287.072
971.036	285.302
972.11	285.083
973.184	285.55
974.258	286.633
975.332	287.932
976.405	289.805
977.478	291.441
978.551	292.812
979.624	295.182
980.696	297.16
981.767	299.226
982.839	300.734
983.911	302.051
984.982	302.412
986.052	300.972
987.123	301.796
988.193	301.9
989.263	301.259
990.333	300.076
991.403	298.733
992.471	297.54
993.54	296.363
994.608	294.779
995.677	293.453
996.745	292.127
997.812	290.984
998.88	289.49
999.947	287.95
1001.01	286.743
1002.08	284.798
1003.15	283.323
1004.21	281.886
1005.28	280.267
1006.34	278.157
1007.41	275.932
1008.47	273.717
1009.54	271.271
1010.6	268.889
1011.67	267.009
1012.73	265.622
1013.79	264.696
1014.86	264.676
1015.92	265.307
1016.98	266.072
1018.05	267.543
1019.11	268.691
1020.17	269.603
1021.23	270.024
1022.29	269.955
1023.35	266.94
1024.41	266.082
1025.47	265.097
1026.53	264.128
1027.59	262.117
1028.65	260.517
1029.71	258.755
1030.77	257.393
1031.83	256.466
1032.89	255.622
1033.95	255.198
1035	255.285
1036.06	255.703
1037.12	256.634
1038.18	257.989
1039.23	259.337
1040.29	260.375
1041.35	260.762
1042.4	260.696
1043.46	260.91
1044.51	260.332
1045.57	260.106
1046.62	259.655
1047.68	259.034
1048.73	257.131
1049.79	255.486
1050.84	252.569
1051.89	250.197
1052.95	247.122
1054	245.259
1055.05	243.427
1056.1	242.572
1057.16	245.477
1058.21	257.24
1059.26	250.068
1060.31	250.425
1061.36	251.069
1062.41	251.401
1063.46	251.868
1064.51	252.165
1065.56	251.808
1066.61	251.43
1067.66	250.588
1068.71	249.514
1069.76	247.937
1070.81	246.243
1071.85	245.033
1072.9	243.881
1073.95	243.299
1075	242.384
1076.04	240.923
1077.09	240.383
1078.14	239.101
1079.18	237.922
1080.23	237.528
1081.27	237.624
1082.32	237.603
1083.36	238.217
1084.41	238.544
1085.45	239.202
1086.5	238.725
1087.54	238.425
1088.59	238.497
1089.63	238.704
1090.67	238.339
1091.71	237.705
1092.76	237.935
1093.8	238.048
1094.84	238.23
1095.88	237.567
1096.92	237.264
1097.97	236.872
1099.01	236.563
1100.05	236.508
1101.09	236.718
1102.13	236.879
1103.17	237.595
1104.21	237.884
1105.25	237.83
1106.28	237.985
1107.32	236.991
1108.36	236.124
1109.4	235.561
1110.44	234.498
1111.47	233.41
1112.51	231.705
1113.55	230.154
1114.59	229.003
1115.62	227.559
1116.66	226.625
1117.69	226.259
1118.73	225.732
1119.77	225.469
1120.8	225.548
1121.84	225.46
1122.87	225.055
1123.9	225.63
1124.94	225.679
1125.97	225.967
1127	226.33
1128.04	226.861
1129.07	227.839
1130.1	230.338
1131.13	230.626
1132.17	230.594
1133.2	227.062
1134.23	228.768
1135.26	230.943
1136.29	233.633
1137.32	238.103
1138.35	243.674
1139.38	245.67
1140.41	247.259
1141.44	247.621
1142.47	247.264
1143.5	245.993
1144.53	245.275
1145.56	244.966
1146.59	244.795
1147.61	244.592
1148.64	245.509
1149.67	245.803
1150.7	247.085
1151.72	247.333
1152.75	247.392
1153.77	247.284
1154.8	246.713
1155.83	245.838
1156.85	245.373
1157.88	243.698
1158.9	241.154
1159.93	238.089
1160.95	234.759
1161.97	231.918
1163	229.141
1164.02	225.77
1165.04	223.253
1166.07	220.696
1167.09	219.436
1168.11	218.919
1169.13	218.51
1170.16	218.696
1171.18	219.489
1172.2	220.798
1173.22	222.499
1174.24	224.374
1175.26	225.729
1176.28	226.908
1177.3	228.441
1178.32	229.739
1179.34	230.865
1180.36	231.257
1181.38	231.778
1182.4	232.261
1183.41	231.835
1184.43	232.472
1185.45	231.558
1186.47	229.968
1187.48	228.08
1188.5	225.513
1189.52	222.679
1190.53	219.922
1191.55	216.617
1192.56	213.581
1193.58	211.083
1194.59	208.995
1195.61	206.224
1196.62	204.978
1197.64	204.768
1198.65	204.936
1199.67	205.952
1200.68	207.431
1201.69	209.82
1202.71	210.679
1203.72	211.402
1204.73	212.065
1205.74	212.408
1206.76	211.619
1207.77	210.884
1208.78	211.172
1209.79	211.375
1210.8	211.563
1211.81	211.478
1212.82	211.215
1213.83	209.426
1214.84	208.185
1215.85	206.363
1216.86	205.702
1217.87	205.41
1218.88	205.082
1219.88	204.655
1220.89	204.953
1221.9	205.246
1222.91	205.408
1223.92	206.003
1224.92	206.16
1225.93	206.008
1226.93	205.404
1227.94	205.204
1228.95	204.611
1229.95	204.05
1230.96	203.862
1231.96	203.251
1232.97	201.556
1233.97	199.83
1234.98	198.056
1235.98	196.379
1236.98	194.74
1237.99	193.127
1238.99	191.743
1239.99	191.665
1241	191.935
1242	191.916
1243	191.773
1244	191.625
1245	190.817
1246	190.203
1247.01	189.208
1248.01	188.89
1249.01	187.966
1250.01	188.182
1251.01	188.705
1252.01	188.706
1253	188.597
1254	188.564
1255	188.582
1256	188.477
1257	188.163
1258	188.074
1258.99	187.791
1259.99	188.077
1260.99	187.822
1261.99	186.841
1262.98	185.721
1263.98	184.804
1264.98	183.929
1265.97	183.461
1266.97	183.217
1267.96	182.661
1268.96	182.137
1269.95	182.089
1270.95	182.067
1271.94	182.156
1272.93	180.843
1273.93	180.948
1274.92	181.059
1275.91	181.798
1276.91	182.709
1277.9	183.77
1278.89	183.933
1279.88	185.058
1280.87	185.645
1281.87	186.736
1282.86	188.394
1283.85	190.046
1284.84	192.198
1285.83	193.339
1286.82	192.78
1287.81	190.295
1288.8	185.376
1289.79	182.7
1290.78	181.848
1291.76	177.139
1292.75	171.633
1293.74	167.435
1294.73	166.154
1295.72	171.374
1296.7	177.013
1297.69	179.217
1298.68	181.45
1299.66	180.322
1300.65	180.962
1301.64	181.329
1302.62	182.498
1303.61	182.783
1304.59	182.446
1305.58	181.57
1306.56	180.476
1307.55	179.417
1308.53	178.098
1309.51	176.061
1310.5	174.466
1311.48	173.205
1312.46	172.049
1313.45	172.185
1314.43	171.316
1315.41	171.237
1316.39	171.589
1317.38	172.454
1318.36	172.314
1319.34	172.727
1320.32	175.496
1321.3	179.188
1322.28	182.626
1323.26	185.858
1324.24	188.863
1325.22	191.414
1326.2	193.369
1327.18	194.168
1328.16	193.961
1329.13	189.594
1330.11	178.371
1331.09	179.137
1332.07	179.619
1333.04	182.298
1334.02	179.922
1335	177.375
1335.97	174.806
1336.95	172
1337.93	169.478
1338.9	167.248
1339.88	165.457
1340.85	163.549
1341.83	162.127
1342.8	161.336
1343.78	160.455
1344.75	160.755
1345.72	160.83
1346.7	160.578
1347.67	160.016
1348.65	159.763
1349.62	159.858
1350.59	160.668
1351.56	160.991
1352.53	161.797
1353.51	162.204
1354.48	162.158
1355.45	161.747
1356.42	161.215
1357.39	160.299
1358.36	158.94
1359.33	157.628
1360.3	156.885
1361.27	155.77
1362.24	154.55
1363.21	153.308
1364.18	152.275
1365.14	151.064
1366.11	149.64
1367.08	148.869
1368.05	148.219
1369.02	147.773
1369.98	147.632
1370.95	147.494
1371.92	148.237
1372.88	149.312
1373.85	150.213
1374.81	150.851
1375.78	151.501
1376.74	151.855
1377.71	151.946
1378.68	152.074
1379.64	151.921
1380.6	151.724
1381.57	151.209
1382.53	150.335
1383.49	149.47
1384.46	148.515
1385.42	147.382
1386.38	146.828
1387.34	146.323
1388.31	146.173
1389.27	146.049
1390.23	146.301
1391.19	146.843
1392.15	147.375
1393.11	147.307
1394.07	148.097
1395.03	148.908
1395.99	150.116
1396.95	150.573
1397.91	151.114
1398.87	152.476
1399.83	152.082
1400.79	151.683
1401.75	151.419
1402.7	151.312
1403.66	149.238
1404.62	146.117
1405.58	141.575
1406.53	138.348
1407.49	136.462
1408.45	135.58
1409.4	135.304
1410.36	136.378
1411.31	137.183
1412.27	137.927
1413.23	138.162
1414.18	139.13
1415.13	140.265
1416.09	141.201
1417.04	141.88
1418	143.36
1418.95	144.079
1419.9	143.818
1420.86	143.919
1421.81	143.098
1422.76	141.165
1423.71	140.626
1424.67	139.863
1425.62	139.056
1426.57	138.121
1427.52	137.513
1428.47	137.45
1429.42	137.94
1430.37	138.543
1431.32	139.4
1432.27	140.419
1433.22	141.085
1434.17	141.286
1435.12	141.998
1436.07	142.043
1437.02	142.289
1437.96	142.535
1438.91	142.98
1439.86	142.871
1440.81	142.215
1441.75	141.995
1442.7	141.93
1443.65	141.242
1444.59	140.254
1445.54	139.143
1446.49	138.134
1447.43	136.601
1448.38	135.257
1449.32	134.663
1450.27	134.246
1451.21	134.082
1452.15	133.626
1453.1	133.963
1454.04	134.72
1454.98	134.997
1455.93	135.289
1456.87	135.509
1457.81	135.733
1458.76	135.583
1459.7	135.601
1460.64	135.892
1461.58	136.203
1462.52	135.87
1463.46	135.513
1464.4	134.767
1465.34	133.895
1466.28	132.396
1467.22	131.379
1468.16	130.567
1469.1	129.866
1470.04	129.467
1470.98	129.458
1471.92	129.41
1472.86	128.691
1473.8	128.508
1474.73	129.023
1475.67	128.529
1476.61	127.767
1477.55	127.403
1478.48	127.491
1479.42	127.414
1480.36	127.562
1481.29	127.815
1482.23	128.783
1483.16	128.863
1484.1	128.787
1485.03	128.8
1485.97	128.882
1486.9	129.2
1487.84	129.762
1488.77	129.405
1489.7	129.648
1490.64	129.888
1491.57	129.523
1492.5	129.784
1493.44	129.41
1494.37	128.779
1495.3	128.129
1496.23	127.71
1497.16	127.414
1498.09	127.134
1499.02	126.729
1499.96	126.154
1500.89	126.018
1501.82	125.917
1502.75	126.709
1503.68	127.754
1504.61	128.59
1505.53	129.353
1506.46	130.379
1507.39	131.288
1508.32	132.466
1509.25	133.278
1510.18	134.467
1511.1	136.119
1512.03	137.751
1512.96	139.681
1513.88	141.68
1514.81	144.101
1515.74	146.284
1516.66	148.907
1517.59	150.88
1518.51	153.461
1519.44	156.374
1520.36	159.213
1521.29	162.214
1522.21	164.258
1523.14	165.825
1524.06	166.624
1524.98	166.825
1525.91	166.182
1526.83	165.105
1527.75	163.61
1528.68	161.616
1529.6	158.896
1530.52	156.182
1531.44	153.474
1532.36	150.988
1533.29	148.221
1534.21	145.35
1535.13	143.447
1536.05	140.712
1536.97	138.682
1537.89	136.531
1538.81	134.6
1539.73	132.894
1540.65	130.902
1541.56	129.7
1542.48	128.578
1543.4	127.403
1544.32	126.527
1545.24	125.618
1546.16	124.76
1547.07	123.896
1547.99	122.928
1548.91	121.977
1549.82	120.648
1550.74	119.119
1551.66	117.43
1552.57	115.901
1553.49	114.533
1554.4	113.47
1555.32	112.47
1556.23	111.784
1557.15	111.217
1558.06	110.648
1558.97	110.353
1559.89	109.875
1560.8	109.387
1561.71	108.633
1562.63	108.459
1563.54	108.127
1564.45	108.454
1565.36	109.167
1566.28	108.055
1567.19	107.212
1568.1	106.113
1569.01	104.71
1569.92	103.762
1570.83	102.545
1571.74	102.013
1572.65	101.619
1573.56	101.069
1574.47	100.395
1575.38	99.526
1576.29	99.1275
1577.2	98.8122
1578.11	98.6682
1579.01	98.6114
1579.92	98.7263
1580.83	98.7262
1581.74	98.8639
1582.64	99.0759
1583.55	99.3581
1584.46	99.3861
1585.36	99.3074
1586.27	99.2172
1587.18	99.0162
1588.08	98.7984
1588.99	98.8327
1589.89	98.3957
1590.8	98.1321
1591.7	97.9239
1592.61	97.5008
1593.51	96.974
1594.41	96.5792
1595.32	96.4004
1596.22	96.2601
1597.12	96.0332
1598.03	96.0461
1598.93	96.3016
1599.83	96.706
1600.73	97.23
1601.64	97.7721
1602.54	98.2323
1603.44	98.6194
1604.34	98.9607
1605.24	99.3147
1606.14	99.5389
1607.04	99.5381
1607.94	98.9606
1608.84	98.4578
1609.74	98.2344
1610.64	97.972
1611.54	97.7117
1612.44	97.5915
1613.33	97.3322
1614.23	96.5896
1615.13	95.8617
1616.03	94.8093
1616.92	93.8588
1617.82	93.0111
1618.72	92.2088
1619.61	91.4694
1620.51	90.6558
1621.41	89.8044
1622.3	88.8496
1623.2	87.8374
1624.09	87.1729
1624.99	86.847
1625.88	86.9697
1626.78	87.5326
1627.67	88.1786
1628.57	88.7886
1629.46	89.5646
1630.35	90.375
1631.25	91.0444
1632.14	91.5577
1632.85	91.4145
1633.78	92.0102
1634.71	92.3558
1635.64	91.9624
1636.57	91.8478
1637.5	91.1935
1638.42	91.0212
1639.35	90.9314
1640.28	90.7294
1641.21	90.6818
1642.13	90.6801
1643.06	90.7405
1643.99	90.9021
1644.91	90.7763
1645.84	90.2677
1646.77	89.8903
1647.69	89.6096
1648.62	89.3179
1649.54	89.1243
1650.47	89.3285
1651.39	89.0672
1652.32	88.5933
1653.24	88.0486
1654.17	87.0937
1655.09	86.4961
1656.01	85.618
1656.94	85.1626
1657.86	84.4985
1658.78	84.0139
1659.71	83.9378
1660.63	84.2052
1661.55	84.4113
1662.47	84.6164
1663.4	84.6563
1664.32	85.1229
1665.24	85.7025
1666.16	86.057
1667.08	86.4648
1668	87.9497
1668.92	88.4406
1669.84	88.2744
1670.76	87.7963
1671.68	87.3043
1672.6	86.2753
1673.52	84.4768
1674.44	83.5157
1675.36	81.8476
1676.28	83.0968
1677.2	84.5112
1678.12	86.1003
1679.03	86.2276
1679.95	86.4795
1680.87	81.369
1681.79	80.6
1682.7	81.6857
1683.62	82.8898
1684.54	81.5818
1685.45	82.2034
1686.37	83.9065
1687.29	85.1077
1688.2	85.0697
1689.12	84.3685
1690.03	83.9257
1690.95	83.3319
1691.86	82.7805
1692.78	82.2281
1693.69	81.5183
1694.61	80.9124
1695.52	80.253
1696.43	79.5732
1697.35	79.2757
1698.26	79.764
1699.17	79.4706
1700.09	78.9925
1701	78.6832
1701.91	78.5624
1702.82	78.5076
1703.74	78.447
1704.65	78.6791
1705.56	79.1819
1706.47	79.4283
1707.38	79.9908
1708.29	80.3487
1709.2	80.631
1710.11	80.4844
1711.02	80.3105
1711.93	80.0278
1712.84	80.2361
1713.75	80.0751
1714.66	80.0704
1715.57	79.3579
1716.48	78.3919
1717.39	78.0639
1718.3	77.4017
1719.21	77.3585
1720.11	77.4777
1721.02	77.6864
1721.93	77.936
1722.84	78.4921
1723.74	78.7826
1724.65	78.38
1725.56	77.7455
1726.46	77.0161
1727.37	76.3979
1728.28	75.4122
1729.18	74.6145
1730.09	73.8399
1730.99	73.1635
1731.9	72.47
1732.8	72.3415
1733.71	72.3363
1734.61	72.7161
1735.52	73.9639
1736.42	74.4669
1737.32	75.5427
1738.23	75.5913
1739.13	76.0536
1740.03	76.4352
1740.94	76.6244
1741.84	76.8433
1742.74	76.6965
1743.64	76.2194
1744.54	75.8183
1745.45	75.1554
1746.35	74.1715
1747.25	73.4406
1748.15	72.8699
1749.05	72.6439
1749.95	72.5534
1750.85	73.0035
1751.75	73.2681
1752.65	73.7051
1753.55	74.1481
1754.45	74.7214
1755.35	75.1152
1756.25	75.2185
1757.15	75.2906
1758.05	75.3602
1758.94	75.4307
1759.84	75.5116
1760.74	75.5757
1761.64	75.6718
1762.53	75.7379
1763.43	75.7962
1764.33	75.8346
1765.23	75.7794
1766.12	74.52
1767.02	73.6152
1767.91	72.5916
1768.81	72.1585
1769.71	71.8217
1770.6	71.6661
1771.5	71.8942
1772.39	72.3691
1773.29	72.5233
1774.18	72.5751
1775.07	71.9837
1775.97	71.4296
1776.86	70.934
1777.76	70.8996
1778.65	71.1518
1779.54	71.4789
1780.44	71.7733
1781.33	71.3172
1782.22	70.5364
1783.11	69.9684
1784.01	69.1975
1784.9	68.423
1785.79	67.7936
1786.68	67.553
1787.57	67.1719
1788.46	66.9636
1789.35	66.6439
1790.24	66.2557
1791.13	66.2543
1792.02	66.2286
1792.91	66.2446
1793.8	66.2118
1794.69	66.7106
1795.58	67.716
1796.47	69.1276
1797.36	71.1685
1798.25	73.629
1799.14	74.8109
