Acq. time (s)=	15
Accumulations=	2
Range (cm-¹)=	600...1800
Windows=	2
Autofocus=	Off
AutoExposure=	Off
Spike filter=	Multiple accum.
Delay time (s)=	1
Binning=	1
Readout mode=	Signal
DeNoise=	Standard
ICS correction=	Off
Dark correction=	Off
Inst. Process=	Off
Instrument=	XploRA
Detector=	Syncerity
Objective=	x20LWD
Grating=	1200 gr/mm
Filter=	25%
Laser (nm)=	785 
Slit (µm)=	100 
Hole (µm)=	300 
Laser pol=	None
Raman pol=	None
Output=	Camera
StageXY=	Marzhauser
StageZ=	
X (µm)=	-3321.5
Y (µm)=	2708.1
Project=	
Sample=	
Site=	
Title=	Cmm1 s-t
Remark=	
Date=	22.07.2022 02:06
Acquired=	22.07.2022 02:06:56
600.839	586.834
602.009	596.21
603.178	603.284
604.347	609.971
605.516	616.832
606.684	623.437
607.852	630.065
609.02	636.538
610.187	642.992
611.355	648.389
612.521	652.819
613.688	657.257
614.854	661.551
616.02	665.713
617.185	669.467
618.351	673.023
619.516	676.217
620.681	679.09
621.846	682.283
623.009	686.093
624.174	687.931
625.337	689.355
626.501	690.569
627.664	691.628
628.826	692.946
629.988	693.751
631.151	694.396
632.313	695.063
633.474	695.768
634.635	696.907
635.797	698.441
636.958	699.858
638.117	701.073
639.278	701.742
640.437	702.139
641.597	702.318
642.756	702.172
643.915	701.858
645.074	701.574
646.233	701.483
647.391	702.318
648.548	704.374
649.706	706.389
650.863	707.254
652.02	707.676
653.176	707.689
654.333	707.481
655.489	707.167
656.645	706.647
657.8	706.043
658.955	705.573
660.11	705.042
661.264	704.571
662.419	704.05
663.573	702.78
664.727	700.982
665.88	700.659
667.033	701.187
668.186	702.776
669.338	704.811
670.491	707.216
671.643	709.973
672.794	712.689
673.945	715.585
675.096	718.341
676.247	721.728
677.398	724.945
678.548	727.864
679.698	729.843
680.847	731.309
681.997	732.224
683.146	731.964
684.294	731.182
685.443	729.928
686.591	728.264
687.739	726.742
688.887	725.037
690.034	723.388
691.181	722.012
692.328	721.003
693.474	720.014
694.62	719.376
695.766	719.196
696.911	719.553
698.057	720.659
699.202	722.086
700.346	724.608
701.49	727.664
702.635	729.197
703.779	730.516
704.922	731.669
706.065	732.747
707.208	733.193
708.351	733.127
709.493	732.687
710.635	731.529
711.776	729.85
712.918	728.497
714.059	727.358
715.2	726.296
716.341	725.191
717.481	724.125
718.621	722.941
719.761	721.291
720.9	719.373
722.04	717.494
723.178	715.678
724.317	713.976
725.455	712.398
726.594	711.544
727.731	710.912
728.868	710.592
730.005	710.394
731.142	711.366
732.279	713.162
733.415	715.224
734.551	717.601
735.686	720.002
736.822	722.558
737.957	725.236
739.092	727.831
740.226	730.319
741.36	732.747
742.495	734.535
743.628	735.882
744.762	736.364
745.895	735.69
747.027	734.076
748.16	731.943
749.292	729.258
750.423	726.241
751.555	722.91
752.686	719.119
753.817	715.109
754.949	710.845
756.079	706.19
757.209	701.629
758.339	697.339
759.469	693.328
760.597	689.946
761.727	686.899
762.856	684.148
763.984	682.159
765.112	680.713
766.24	679.874
767.367	679.453
768.494	679.257
769.622	679.306
770.749	678.732
771.874	678.836
773.001	678.722
774.127	678.281
775.253	677.4
776.377	676.174
777.503	674.033
778.627	671.15
779.751	667.84
780.876	664.31
782	659.206
783.123	653.949
784.246	648.637
785.37	643.52
786.492	639.802
787.614	636.341
788.737	633.542
789.858	631.281
790.979	629.637
792.101	628.446
793.222	627.898
794.342	627.878
795.463	628.26
796.583	628.974
797.702	629.731
798.822	630.387
799.942	630.772
801.06	630.775
802.179	628.511
803.297	623.238
804.415	619.985
805.533	617.829
806.651	617.57
807.768	619.185
808.885	623.273
810.001	623.7
811.118	623.573
812.233	623.274
813.349	618.546
814.464	613.714
815.58	610.457
816.695	608.784
817.809	610.085
818.924	609.412
820.038	609.178
821.152	609.284
822.265	609.6
823.378	609.612
824.491	609.796
825.604	614.2
826.716	614.996
827.828	616.243
828.94	617.167
830.051	617.421
831.162	616.703
832.273	614.775
833.383	612.403
834.494	609.16
835.604	605.854
836.714	602.922
837.823	600.61
838.932	599.033
840.041	597.559
841.15	596.35
842.258	595.5
843.366	594.317
844.474	592.518
845.581	590.611
846.688	590.053
847.795	589.907
848.901	590.069
850.008	590.307
851.115	590.006
852.22	589.143
853.325	587.521
854.43	586.223
855.536	585.132
856.64	584.141
857.745	582.926
858.848	581.246
859.952	579.237
861.055	576.923
862.158	573.895
863.261	570.484
864.364	568.821
865.466	567.621
866.568	566.735
867.67	566.66
868.771	566.828
869.873	566.967
870.973	566.971
872.074	566.837
873.174	566.198
874.274	565.488
875.374	564.63
876.473	563.373
877.572	561.9
878.671	559.881
879.77	557.656
880.868	555.399
881.966	553.192
883.064	549.893
884.161	547.442
885.258	545.674
886.356	544.953
887.452	545.201
888.548	546.744
889.645	549.312
890.74	551.249
891.836	551.915
892.931	551.548
894.025	549.472
895.12	546.254
896.214	541.652
897.308	536.298
898.402	533.788
899.495	533.397
900.588	534.689
901.681	536.794
902.774	529.638
903.866	529.455
904.958	529.604
906.05	530.128
907.142	531.17
908.233	532.375
909.324	534.161
910.414	536.27
911.504	538.451
912.594	540.568
913.684	542.677
914.774	544.132
915.863	545.353
916.952	546.295
918.041	546.67
919.129	544.908
920.217	543.97
921.305	542.232
922.392	540.008
923.48	537.148
924.567	534.155
925.653	530.919
926.74	527.459
927.825	523.707
928.911	520.048
929.997	516.512
931.082	513.047
932.166	510.01
933.252	507.344
934.336	505.295
935.42	503.525
936.504	502.011
937.587	500.863
938.671	499.887
939.753	499.082
940.836	498.46
941.919	498.015
943	497.688
944.082	497.372
945.163	497.001
946.245	496.414
947.326	495.277
948.406	494.179
949.487	492.791
950.567	491.504
951.647	490.262
952.727	489.067
953.805	487.302
954.885	484.069
955.964	478.912
957.042	477.422
958.12	476.381
959.198	476.19
960.276	478.574
961.352	480.228
962.43	481.387
963.507	482.516
964.583	483.866
965.659	484.872
966.735	485.452
967.81	485.425
968.885	484.753
969.961	483.094
971.036	481.402
972.11	479.821
973.184	478.509
974.258	477.656
975.332	477.204
976.405	477.237
977.478	477.497
978.551	478.155
979.624	479.222
980.696	480.633
981.767	482.33
982.839	484.433
983.911	486.782
984.982	489.302
986.052	491.779
987.123	493.617
988.193	493.941
989.263	493.648
990.333	493.097
991.403	492.287
992.471	491.276
993.54	490.136
994.608	488.946
995.677	487.684
996.745	486.324
997.812	484.775
998.88	483.152
999.947	481.371
1001.01	479.636
1002.08	477.604
1003.15	475.488
1004.21	473.268
1005.28	470.97
1006.34	468.29
1007.41	465.591
1008.47	462.999
1009.54	460.471
1010.6	458.184
1011.67	456.311
1012.73	455.816
1013.79	455.563
1014.86	455.692
1015.92	455.894
1016.98	456.372
1018.05	456.793
1019.11	456.504
1020.17	455.915
1021.23	454.783
1022.29	452.964
1023.35	450.218
1024.41	447.141
1025.47	443.68
1026.53	439.389
1027.59	435.108
1028.65	431.279
1029.71	427.916
1030.77	424.994
1031.83	422.524
1032.89	420.63
1033.95	419.285
1035	418.572
1036.06	418.326
1037.12	418.481
1038.18	418.916
1039.23	419.567
1040.29	420.462
1041.35	420.894
1042.4	421.204
1043.46	421.423
1044.51	422.001
1045.57	424.078
1046.62	425.636
1047.68	426.452
1048.73	426.856
1049.79	426.909
1050.84	426.588
1051.89	425.998
1052.95	424.995
1054	423.755
1055.05	422.086
1056.1	419.87
1057.16	417.471
1058.21	415.691
1059.26	414.949
1060.31	414.262
1061.36	413.711
1062.41	413.199
1063.46	412.658
1064.51	412.155
1065.56	411.771
1066.61	411.791
1067.66	411.796
1068.71	411.778
1069.76	411.782
1070.81	411.108
1071.85	409.763
1072.9	408.509
1073.95	407.278
1075	406.096
1076.04	405.033
1077.09	404.394
1078.14	403.763
1079.18	403.235
1080.23	402.688
1081.27	402.063
1082.32	401.415
1083.36	400.623
1084.41	399.355
1085.45	398.274
1086.5	397.094
1087.54	395.835
1088.59	394.502
1089.63	392.95
1090.67	391.372
1091.71	391.552
1092.76	391.443
1093.8	391.008
1094.84	390.259
1095.88	389.258
1096.92	388.264
1097.97	387.187
1099.01	386.029
1100.05	384.656
1101.09	382.389
1102.13	379.719
1103.17	378.287
1104.21	377.47
1105.25	377.002
1106.28	377.376
1107.32	376.59
1108.36	376.435
1109.4	376.539
1110.44	377.375
1111.47	377.488
1112.51	377.816
1113.55	378.016
1114.59	378.222
1115.62	378.527
1116.66	378.767
1117.69	378.955
1118.73	379.168
1119.77	379.353
1120.8	379.582
1121.84	379.728
1122.87	379.901
1123.9	379.991
1124.94	380.171
1125.97	380.269
1127	380.279
1128.04	380.01
1129.07	378.884
1130.1	377.907
1131.13	376.918
1132.17	376.058
1133.2	375.884
1134.23	376.249
1135.26	377.105
1136.29	378.375
1137.32	380.125
1138.35	382.256
1139.38	384.792
1140.41	387.71
1141.44	391.964
1142.47	394.011
1143.5	395.99
1144.53	397.474
1145.56	398.53
1146.59	399.029
1147.61	399.02
1148.64	398.13
1149.67	397.423
1150.7	398.643
1151.72	400.209
1152.75	402.214
1153.77	404.513
1154.8	407.618
1155.83	411.4
1156.85	415.27
1157.88	415.724
1158.9	413.067
1159.93	410.42
1160.95	406.233
1161.97	401.383
1163	393.507
1164.02	386.509
1165.04	379.586
1166.07	372.971
1167.09	366.694
1168.11	361.035
1169.13	356.144
1170.16	352.22
1171.18	349.368
1172.2	347.758
1173.22	348.678
1174.24	355.373
1175.26	358.132
1176.28	361.161
1177.3	364.548
1178.32	369.19
1179.34	373.541
1180.36	377.139
1181.38	379.707
1182.4	381.388
1183.41	382.226
1184.43	382.356
1185.45	381.254
1186.47	379.25
1187.48	376.618
1188.5	373.595
1189.52	370.802
1190.53	367.722
1191.55	363.895
1192.56	361.508
1193.58	358.054
1194.59	353.964
1195.61	349.13
1196.62	344.537
1197.64	340.657
1198.65	337.698
1199.67	335.681
1200.68	334.323
1201.69	335.656
1202.71	336.329
1203.72	337.154
1204.73	337.98
1205.74	338.917
1206.76	339.78
1207.77	341.135
1208.78	344.908
1209.79	346.185
1210.8	345.366
1211.81	343.037
1212.82	341.539
1213.83	340.433
1214.84	339.769
1215.85	339.326
1216.86	339.32
1217.87	339.783
1218.88	340.638
1219.88	341.94
1220.89	343.77
1221.9	345.923
1222.91	348.03
1223.92	348.121
1224.92	347.595
1225.93	347.665
1226.93	347.507
1227.94	347.044
1228.95	346.305
1229.95	344.808
1230.96	342.582
1231.96	339.935
1232.97	337.086
1233.97	334.157
1234.98	331.116
1235.98	328.048
1236.98	324.992
1237.99	322.035
1238.99	319.223
1239.99	316.556
1241	314.219
1242	312.216
1243	310.273
1244	308.439
1245	306.732
1246	305.135
1247.01	303.033
1248.01	301.597
1249.01	301.124
1250.01	299.965
1251.01	298.77
1252.01	298.941
1253	299.583
1254	300.691
1255	302.214
1256	303.981
1257	305.888
1258	307.89
1258.99	309.748
1259.99	310.881
1260.99	311.439
1261.99	311.282
1262.98	310.431
1263.98	306.567
1264.98	304.766
1265.97	302.792
1266.97	300.804
1267.96	298.886
1268.96	296.609
1269.95	294.302
1270.95	292.524
1271.94	291.248
1272.93	290.119
1273.93	289.225
1274.92	288.503
1275.91	288.012
1276.91	287.602
1277.9	287.437
1278.89	287.549
1279.88	287.763
1280.87	288.26
1281.87	289.498
1282.86	290.816
1283.85	292.133
1284.84	293.467
1285.83	294.733
1286.82	295.374
1287.81	295.992
1288.8	296.368
1289.79	296.507
1290.78	296.486
1291.76	296.15
1292.75	295.641
1293.74	294.857
1294.73	293.92
1295.72	292.718
1296.7	291.326
1297.69	289.795
1298.68	288.209
1299.66	290.226
1300.65	289.72
1301.64	288.947
1302.62	287.862
1303.61	286.523
1304.59	285.252
1305.58	283.93
1306.56	282.596
1307.55	280.412
1308.53	278.637
1309.51	277.231
1310.5	275.834
1311.48	274.789
1312.46	274.149
1313.45	274.209
1314.43	275.292
1315.41	277.574
1316.39	279.31
1317.38	281.101
1318.36	282.882
1319.34	284.773
1320.32	286.462
1321.3	288.044
1322.28	289.717
1323.26	291.329
1324.24	295.782
1325.22	297.751
1326.2	299.359
1327.18	299.94
1328.16	299.598
1329.13	298.29
1330.11	296.336
1331.09	293.769
1332.07	290.714
1333.04	287.236
1334.02	283.714
1335	280.123
1335.97	276.62
1336.95	273.691
1337.93	271.809
1338.9	271.315
1339.88	269.386
1340.85	266.494
1341.83	263.694
1342.8	261.33
1343.78	259.534
1344.75	258.288
1345.72	257.501
1346.7	257.549
1347.67	257.898
1348.65	257.752
1349.62	257.531
1350.59	257.301
1351.56	256.912
1352.53	255.793
1353.51	255.274
1354.48	255.479
1355.45	255.645
1356.42	255.73
1357.39	255.704
1358.36	255.297
1359.33	254.559
1360.3	253.651
1361.27	252.294
1362.24	250.68
1363.21	249.109
1364.18	247.876
1365.14	247.101
1366.11	245.971
1367.08	244.79
1368.05	243.548
1369.02	243.172
1369.98	243.012
1370.95	242.736
1371.92	242.674
1372.88	242.745
1373.85	242.785
1374.81	243.099
1375.78	243.038
1376.74	242.927
1377.71	242.795
1378.68	242.563
1379.64	242.246
1380.6	241.914
1381.57	241.638
1382.53	241.403
1383.49	241.16
1384.46	240.898
1385.42	240.662
1386.38	240.373
1387.34	240.215
1388.31	239.91
1389.27	239.576
1390.23	239.209
1391.19	238.804
1392.15	238.369
1393.11	237.932
1394.07	237.438
1395.03	236.877
1395.99	236.345
1396.95	235.592
1397.91	234.693
1398.87	233.884
1399.83	233.054
1400.79	232.244
1401.75	231.448
1402.7	230.673
1403.66	229.95
1404.62	229.282
1405.58	229.071
1406.53	228.686
1407.49	228.418
1408.45	228.529
1409.4	228.855
1410.36	229.015
1411.31	229.19
1412.27	229.307
1413.23	229.439
1414.18	229.496
1415.13	229.047
1416.09	228.794
1417.04	228.554
1418	228.316
1418.95	228.083
1419.9	227.931
1420.86	227.73
1421.81	227.786
1422.76	227.727
1423.71	227.525
1424.67	227.362
1425.62	227.25
1426.57	227.607
1427.52	228.295
1428.47	229.618
1429.42	230.843
1430.37	232.216
1431.32	233.515
1432.27	234.821
1433.22	236.152
1434.17	237.335
1435.12	238.465
1436.07	239.211
1437.02	239.677
1437.96	239.172
1438.91	237.659
1439.86	235.675
1440.81	232.416
1441.75	229.227
1442.7	226.736
1443.65	224.588
1444.59	222.82
1445.54	221.49
1446.49	220.541
1447.43	220.062
1448.38	220.187
1449.32	220.431
1450.27	220.402
1451.21	220.185
1452.15	219.767
1453.1	219.077
1454.04	218.096
1454.98	216.941
1455.93	215.14
1456.87	213.325
1457.81	211.451
1458.76	209.637
1459.7	208.583
1460.64	207.69
1461.58	207.406
1462.52	207.202
1463.46	207.157
1464.4	207.189
1465.34	207.281
1466.28	207.406
1467.22	207.497
1468.16	207.266
1469.1	207.073
1470.04	206.865
1470.98	206.601
1471.92	206.287
1472.86	206.013
1473.8	205.73
1474.73	205.427
1475.67	205.199
1476.61	204.984
1477.55	204.832
1478.48	205.155
1479.42	205.471
1480.36	205.815
1481.29	206.286
1482.23	206.178
1483.16	205.392
1484.1	204.644
1485.03	203.998
1485.97	203.749
1486.9	203.425
1487.84	203.234
1488.77	203.126
1489.7	203.005
1490.64	202.921
1491.57	202.817
1492.5	202.612
1493.44	201.982
1494.37	200.824
1495.3	200.148
1496.23	200.115
1497.16	200.156
1498.09	200.302
1499.02	200.442
1499.96	200.659
1500.89	200.905
1501.82	201.205
1502.75	201.599
1503.68	201.934
1504.61	202.311
1505.53	202.67
1506.46	202.893
1507.39	203.12
1508.32	203.267
1509.25	203.421
1510.18	203.711
1511.1	204.126
1512.03	204.786
1512.96	206.322
1513.88	208.12
1514.81	210.566
1515.74	213.428
1516.66	217.131
1517.59	221.491
1518.51	226.199
1519.44	231.261
1520.36	236.561
1521.29	241.991
1522.21	247.051
1523.14	252.337
1524.06	256.942
1524.98	260.132
1525.91	262.035
1526.83	262.547
1527.75	261.515
1528.68	259.219
1529.6	255.716
1530.52	251.024
1531.44	245.978
1532.36	241.805
1533.29	237.747
1534.21	234.224
1535.13	231.012
1536.05	228.157
1536.97	224.45
1537.89	220.557
1538.81	217.172
1539.73	214.578
1540.65	211.535
1541.56	208.547
1542.48	205.624
1543.4	202.957
1544.32	200.324
1545.24	197.547
1546.16	194.972
1547.07	192.665
1547.99	190.639
1548.91	189.413
1549.82	188.581
1550.74	188.305
1551.66	188.478
1552.57	188.724
1553.49	188.372
1554.4	187.204
1555.32	185.681
1556.23	183.9
1557.15	182.062
1558.06	180.056
1558.97	177.696
1559.89	175.133
1560.8	172.51
1561.71	169.992
1562.63	167.324
1563.54	164.708
1564.45	162.306
1565.36	160.17
1566.28	158.163
1567.19	156.863
1568.1	155.732
1569.01	154.691
1569.92	153.762
1570.83	152.902
1571.74	151.897
1572.65	150.836
1573.56	149.653
1574.47	148.533
1575.38	147.521
1576.29	146.475
1577.2	145.696
1578.11	144.988
1579.01	144.311
1579.92	143.728
1580.83	143.192
1581.74	142.673
1582.64	142.208
1583.55	141.579
1584.46	140.709
1585.36	139.911
1586.27	138.97
1587.18	138.09
1588.08	137.387
1588.99	136.829
1589.89	136.108
1590.8	135.046
1591.7	134.225
1592.61	133.506
1593.51	132.99
1594.41	132.909
1595.32	132.969
1596.22	133.191
1597.12	133.506
1598.03	133.833
1598.93	134.144
1599.83	134.542
1600.73	134.893
1601.64	135.267
1602.54	135.475
1603.44	135.47
1604.34	135.21
1605.24	134.919
1606.14	134.408
1607.04	133.587
1607.94	132.651
1608.84	131.589
1609.74	130.539
1610.64	129.541
1611.54	128.552
1612.44	127.606
1613.33	126.615
1614.23	125.627
1615.13	124.601
1616.03	123.58
1616.92	122.517
1617.82	121.423
1618.72	120.374
1619.61	119.286
1620.51	118.214
1621.41	117.156
1622.3	116.098
1623.2	115.081
1624.09	114.104
1624.99	113.159
1625.88	112.244
1626.78	111.345
1627.67	110.496
1628.57	109.724
1629.46	109.003
1630.35	108.269
1631.25	107.557
1632.14	106.808
1632.85	106.328
1633.78	105.967
1634.71	105.628
1635.64	105.316
1636.57	105.025
1637.5	104.776
1638.42	104.537
1639.35	104.339
1640.28	104.264
1641.21	104.146
1642.13	104.316
1643.06	104.403
1643.99	104.663
1644.91	104.989
1645.84	105.52
1646.77	106.053
1647.69	106.539
1648.62	107.035
1649.54	107.494
1650.47	107.896
1651.39	108.252
1652.32	108.002
1653.24	107.687
1654.17	107.352
1655.09	106.424
1656.01	105.222
1656.94	103.927
1657.86	102.648
1658.78	101.422
1659.71	100.837
1660.63	100.376
1661.55	100.376
1662.47	100.626
1663.4	101.1
1664.32	101.192
1665.24	100.958
1666.16	100.699
1667.08	100.376
1668	99.9914
1668.92	99.7022
1669.84	99.3277
1670.76	98.9928
1671.68	98.6387
1672.6	98.3157
1673.52	98.1199
1674.44	97.9123
1675.36	97.8843
1676.28	97.8389
1677.2	97.9911
1678.12	98.1038
1679.03	98.4284
1679.95	98.9947
1680.87	99.3117
1681.79	99.5374
1682.7	99.7269
1683.62	99.8327
1684.54	99.4307
1685.45	99.2379
1686.37	99.1127
1687.29	98.9481
1688.2	98.6682
1689.12	98.3271
1690.03	98.0486
1690.95	97.6828
1691.86	97.3301
1692.78	96.9331
1693.69	96.514
1694.61	96.1907
1695.52	95.6708
1696.43	95.5119
1697.35	95.4585
1698.26	95.5909
1699.17	95.5885
1700.09	95.7266
1701	95.7764
1701.91	95.7044
1702.82	95.5601
1703.74	95.1064
1704.65	94.6045
1705.56	93.9145
1706.47	93.2214
1707.38	92.3722
1708.29	91.5219
1709.2	90.3367
1710.11	89.3609
1711.02	88.4643
1711.93	87.9531
1712.84	87.7943
1713.75	87.7227
1714.66	87.7523
1715.57	87.9912
1716.48	88.3353
1717.39	88.7927
1718.3	89.3931
1719.21	90.0847
1720.11	90.8006
1721.02	91.4846
1721.93	92.0105
1722.84	91.8156
1723.74	91.5537
1724.65	91.144
1725.56	90.5899
1726.46	90.1551
1727.37	89.5199
1728.28	88.8861
1729.18	88.2107
1730.09	87.2447
1730.99	86.3545
1731.9	85.4961
1732.8	84.8636
1733.71	84.4136
1734.61	84.1381
1735.52	83.9533
1736.42	84.1323
1737.32	84.2753
1738.23	84.4804
1739.13	84.7013
1740.03	84.9347
1740.94	85.1191
1741.84	85.3258
1742.74	85.4515
1743.64	85.5404
1744.54	85.5648
1745.45	85.5003
1746.35	85.4022
1747.25	85.2111
1748.15	84.8257
1749.05	84.3726
1749.95	83.8969
1750.85	83.4514
1751.75	83.0191
1752.65	82.6857
1753.55	82.3764
1754.45	82.6164
1755.35	82.7955
1756.25	83.2716
1757.15	84.0088
1758.05	84.7994
1758.94	85.5441
1759.84	86.2347
1760.74	86.7894
1761.64	86.6807
1762.53	86.5552
1763.43	85.9564
1764.33	85.1586
1765.23	84.37
1766.12	83.67
1767.02	83.1456
1767.91	82.6419
1768.81	82.2409
1769.71	81.9023
1770.6	81.6064
1771.5	81.2719
1772.39	81.14
1773.29	80.7672
1774.18	80.5117
1775.07	80.1877
1775.97	79.9745
1776.86	79.7467
1777.76	79.6247
1778.65	79.5293
1779.54	79.5192
1780.44	79.5639
1781.33	79.6766
1782.22	79.9273
1783.11	80.2437
1784.01	80.7489
1784.9	81.75
1785.79	82.8317
1786.68	83.93
1787.57	85.1807
1788.46	86.2133
1789.35	85.8532
1790.24	84.952
1791.13	83.7103
1792.02	82.1367
1792.91	80.4943
1793.8	78.7639
1794.69	76.9891
1795.58	75.1598
1796.47	73.6201
1797.36	81.964
1798.25	84.8471
1799.14	88.1632
