Acq. time (s)=	15
Accumulations=	2
Range (cm-¹)=	600...1800
Windows=	2
Autofocus=	Off
AutoExposure=	Off
Spike filter=	Multiple accum.
Delay time (s)=	1
Binning=	1
Readout mode=	Signal
DeNoise=	Standard
ICS correction=	Off
Dark correction=	Off
Inst. Process=	Off
Instrument=	XploRA
Detector=	Syncerity
Objective=	x20LWD
Grating=	1200 gr/mm
Filter=	25%
Laser (nm)=	785 
Slit (µm)=	100 
Hole (µm)=	300 
Laser pol=	None
Raman pol=	None
Output=	Camera
StageXY=	Marzhauser
StageZ=	
X (µm)=	-10270.9
Y (µm)=	2855.1
Project=	
Sample=	
Site=	
Title=	Cmm1 s-t
Remark=	
Date=	22.07.2022 02:24
Acquired=	22.07.2022 02:24:01
600.839	2007.63
602.009	2031.23
603.178	2051.37
604.347	2065.93
605.516	2076.43
606.684	2086.9
607.852	2097.74
609.02	2109.63
610.187	2122.37
611.355	2135.98
612.521	2150.83
613.688	2166.55
614.854	2182.69
616.02	2199.56
617.185	2215.65
618.351	2230.74
619.516	2244.62
620.681	2257.09
621.846	2267.9
623.009	2276.98
624.174	2284.63
625.337	2290.52
626.501	2294.6
627.664	2296.67
628.826	2297.28
629.988	2296.42
631.151	2294.61
632.313	2293.5
633.474	2292.8
634.635	2292.82
635.797	2293.67
636.958	2295.66
638.117	2298.46
639.278	2302.08
640.437	2306.37
641.597	2310.83
642.756	2315
643.915	2319.52
645.074	2324.03
646.233	2329.44
647.391	2337.09
648.548	2346.84
649.706	2350.64
650.863	2354.79
652.02	2358.2
653.176	2361
654.333	2364.12
655.489	2369.5
656.645	2376.8
657.8	2381.4
658.955	2383.25
660.11	2386.5
661.264	2390.03
662.419	2393.75
663.573	2396.87
664.727	2400.54
665.88	2404.79
667.033	2412.86
668.186	2418.16
669.338	2422.8
670.491	2428.78
671.643	2435.71
672.794	2442.8
673.945	2448.19
675.096	2452.01
676.247	2455.4
677.398	2458.24
678.548	2461.66
679.698	2463.56
680.847	2465.05
681.997	2466.24
683.146	2467.42
684.294	2468.3
685.443	2469.75
686.591	2471.56
687.739	2473.08
688.887	2474.34
690.034	2475.18
691.181	2475.23
692.328	2474.1
693.474	2472.65
694.62	2470
695.766	2466.93
696.911	2463.64
698.057	2460.24
699.202	2457.7
700.346	2456.02
701.49	2454.86
702.635	2453.44
703.779	2447.15
704.922	2442.16
706.065	2437.53
707.208	2433.26
708.351	2429.69
709.493	2426.42
710.635	2423.52
711.776	2420.86
712.918	2418.57
714.059	2416.48
715.2	2414.29
716.341	2412.62
717.481	2410.98
718.621	2409.14
719.761	2407.05
720.9	2404.45
722.04	2400.33
723.178	2396.08
724.317	2392.03
725.455	2388.27
726.594	2385.32
727.731	2381.62
728.868	2379.5
730.005	2377.39
731.142	2378.34
732.279	2374.62
733.415	2382.98
734.551	2392.34
735.686	2403.47
736.822	2415.35
737.957	2433.02
739.092	2443.5
740.226	2455.66
741.36	2464.68
742.495	2479.01
743.628	2478.98
744.762	2474.46
745.895	2466.53
747.027	2432.15
748.16	2424.39
749.292	2416.44
750.423	2410.32
751.555	2406.9
752.686	2400.44
753.817	2398.34
754.949	2397.23
756.079	2387.52
757.209	2373
758.339	2358.23
759.469	2345.72
760.597	2333.53
761.727	2321.38
762.856	2309.71
763.984	2300.49
765.112	2293.44
766.24	2291.3
767.367	2288.56
768.494	2279.95
769.622	2271.92
770.749	2264.46
771.874	2256.3
773.001	2249.73
774.127	2245.74
775.253	2242.69
776.377	2239.65
777.503	2235.99
778.627	2231.98
779.751	2227.28
780.876	2221.7
782	2215.42
783.123	2208.47
784.246	2195.83
785.37	2188.88
786.492	2182.09
787.614	2175.21
788.737	2168.13
789.858	2160.57
790.979	2153.17
792.101	2145.81
793.222	2140.38
794.342	2135.17
795.463	2129.72
796.583	2123.75
797.702	2117.43
798.822	2110.81
799.942	2104.43
801.06	2098.36
802.179	2092.89
803.297	2088.35
804.415	2085.81
805.533	2083.69
806.651	2080.86
807.768	2077.02
808.885	2073.39
810.001	2069.94
811.118	2067.12
812.233	2064.58
813.349	2062.1
814.464	2059.77
815.58	2057.54
816.695	2055.4
817.809	2053.13
818.924	2050.86
820.038	2048.64
821.152	2046.38
822.265	2044.25
823.378	2042.12
824.491	2044.58
825.604	2045.11
826.716	2044.68
827.828	2043.25
828.94	2040.86
830.051	2035.85
831.162	2030.83
832.273	2028.05
833.383	2026.08
834.494	2024.75
835.604	2024.12
836.714	2023.63
837.823	2023.19
838.932	2023.27
840.041	2022.81
841.15	2021.46
842.258	2019.5
843.366	2018.49
844.474	2017.59
845.581	2015.94
846.688	2010.1
847.795	2004.01
848.901	2001.4
850.008	1999.01
851.115	1997.06
852.22	1991.64
853.325	1984.78
854.43	1979.06
855.536	1973.51
856.64	1967.72
857.745	1961.17
858.848	1954.25
859.952	1947.45
861.055	1940.98
862.158	1935.6
863.261	1930.96
864.364	1926.81
865.466	1922.72
866.568	1918.85
867.67	1913.03
868.771	1906.39
869.873	1899.66
870.973	1893.89
872.074	1888.72
873.174	1884.21
874.274	1880.87
875.374	1878.49
876.473	1876.74
877.572	1875.07
878.671	1873.26
879.77	1869.9
880.868	1866.42
881.966	1863.03
883.064	1859.97
884.161	1858
885.258	1856.32
886.356	1854.7
887.452	1851.22
888.548	1847.55
889.645	1844.29
890.74	1842.17
891.836	1839.75
892.931	1836.77
894.025	1834.07
895.12	1832.16
896.214	1830.36
897.308	1828.51
898.402	1826.8
899.495	1824.95
900.588	1822.86
901.681	1820.17
902.774	1818.59
903.866	1820.84
904.958	1819.95
906.05	1824.87
907.142	1831.29
908.233	1838.37
909.324	1845.76
910.414	1853.05
911.504	1861.71
912.594	1861.98
913.684	1862.74
914.774	1862.51
915.863	1860.9
916.952	1857.51
918.041	1852.45
919.129	1845.45
920.217	1836.64
921.305	1825.63
922.392	1810.02
923.48	1796.07
924.567	1783.65
925.653	1773.16
926.74	1763.9
927.825	1756.32
928.911	1750.86
929.997	1747.78
931.082	1748.41
932.166	1742.58
933.252	1736.67
934.336	1731.06
935.42	1725.53
936.504	1720
937.587	1714.36
938.671	1708.7
939.753	1703.18
940.836	1697.74
941.919	1692.32
943	1686.96
944.082	1681.53
945.163	1676.23
946.245	1671.45
947.326	1667.27
948.406	1663.79
949.487	1662.94
950.567	1662.72
951.647	1662.93
952.727	1663.15
953.805	1662.91
954.885	1662.51
955.964	1661.91
957.042	1660.29
958.12	1658.89
959.198	1657.75
960.276	1656.87
961.352	1656.06
962.43	1655.15
963.507	1652.37
964.583	1647.07
965.659	1641.67
966.735	1636.37
967.81	1631.49
968.885	1627.78
969.961	1624.73
971.036	1622.74
972.11	1621.75
973.184	1622.11
974.258	1623.89
975.332	1628.3
976.405	1633.85
977.478	1640.07
978.551	1646.74
979.624	1652.64
980.696	1658.35
981.767	1663.95
982.839	1668.78
983.911	1673.53
984.982	1677.26
986.052	1676.87
987.123	1676.46
988.193	1675.65
989.263	1675.14
990.333	1673.73
991.403	1672.9
992.471	1671.66
993.54	1670.14
994.608	1668.09
995.677	1665.58
996.745	1662.53
997.812	1658.67
998.88	1654.05
999.947	1648.86
1001.01	1643.04
1002.08	1636.58
1003.15	1629.79
1004.21	1621.86
1005.28	1613.17
1006.34	1603.76
1007.41	1593.9
1008.47	1583.63
1009.54	1573.34
1010.6	1564.27
1011.67	1554.08
1012.73	1544.23
1013.79	1534.81
1014.86	1525.92
1015.92	1517.51
1016.98	1510.1
1018.05	1503.7
1019.11	1497.96
1020.17	1492.77
1021.23	1488.14
1022.29	1484.05
1023.35	1480.57
1024.41	1477.45
1025.47	1474.88
1026.53	1472.37
1027.59	1470.76
1028.65	1467.46
1029.71	1464.12
1030.77	1461.02
1031.83	1457.76
1032.89	1454.65
1033.95	1452.19
1035	1449.91
1036.06	1448.63
1037.12	1450.25
1038.18	1456.14
1039.23	1454.63
1040.29	1453.38
1041.35	1452.31
1042.4	1451.37
1043.46	1450.46
1044.51	1449.54
1045.57	1449.35
1046.62	1449.09
1047.68	1448.78
1048.73	1448.36
1049.79	1447.56
1050.84	1445.91
1051.89	1443.12
1052.95	1439.91
1054	1435.99
1055.05	1431.74
1056.1	1427.28
1057.16	1423.02
1058.21	1418.65
1059.26	1413.41
1060.31	1409.61
1061.36	1406.98
1062.41	1406.33
1063.46	1408.22
1064.51	1409.52
1065.56	1408.72
1066.61	1407.71
1067.66	1406.91
1068.71	1404.7
1069.76	1401.37
1070.81	1397.67
1071.85	1393.74
1072.9	1389.87
1073.95	1386.1
1075	1383.35
1076.04	1380.5
1077.09	1377.97
1078.14	1375.17
1079.18	1371.41
1080.23	1369.11
1081.27	1371.51
1082.32	1371.67
1083.36	1370.69
1084.41	1368.66
1085.45	1360.56
1086.5	1356.66
1087.54	1353.2
1088.59	1350.11
1089.63	1346.63
1090.67	1343.64
1091.71	1331.54
1092.76	1306.35
1093.8	1334.36
1094.84	1328.91
1095.88	1324.07
1096.92	1320.04
1097.97	1316.93
1099.01	1314.5
1100.05	1312.84
1101.09	1311.99
1102.13	1311.64
1103.17	1312.43
1104.21	1314.38
1105.25	1317.18
1106.28	1319.96
1107.32	1322.47
1108.36	1324.18
1109.4	1324.71
1110.44	1324.81
1111.47	1323.9
1112.51	1322.28
1113.55	1319.95
1114.59	1316.74
1115.62	1312.74
1116.66	1308.27
1117.69	1303.21
1118.73	1297.75
1119.77	1292.84
1120.8	1286.89
1121.84	1281.02
1122.87	1275.63
1123.9	1270.96
1124.94	1267.21
1125.97	1265.18
1127	1263.99
1128.04	1263.84
1129.07	1264.75
1130.1	1266.73
1131.13	1270.71
1132.17	1276.23
1133.2	1283.31
1134.23	1290.92
1135.26	1299.1
1136.29	1307.52
1137.32	1315.86
1138.35	1323.88
1139.38	1331.11
1140.41	1337.64
1141.44	1343.15
1142.47	1348.21
1143.5	1352.23
1144.53	1355.36
1145.56	1357.98
1146.59	1359.76
1147.61	1360.8
1148.64	1361.85
1149.67	1366.95
1150.7	1373.29
1151.72	1381.55
1152.75	1391.52
1153.77	1402.83
1154.8	1410.88
1155.83	1413.28
1156.85	1412.74
1157.88	1410.37
1158.9	1404.02
1159.93	1390.91
1160.95	1368.55
1161.97	1345.29
1163	1321.6
1164.02	1299.86
1165.04	1280.42
1166.07	1265.53
1167.09	1253.7
1168.11	1244.59
1169.13	1238
1170.16	1233.55
1171.18	1231.53
1172.2	1231.24
1173.22	1232.8
1174.24	1235.5
1175.26	1239.41
1176.28	1245.24
1177.3	1251.99
1178.32	1258.76
1179.34	1264.17
1180.36	1269.77
1181.38	1274.77
1182.4	1279.37
1183.41	1283.01
1184.43	1285.76
1185.45	1286.96
1186.47	1286.74
1187.48	1284.05
1188.5	1279.59
1189.52	1272.59
1190.53	1263.58
1191.55	1252.25
1192.56	1238.23
1193.58	1223.1
1194.59	1207.52
1195.61	1194.51
1196.62	1182.34
1197.64	1172.1
1198.65	1166.8
1199.67	1162.29
1200.68	1157.26
1201.69	1153.1
1202.71	1151
1203.72	1149.65
1204.73	1149.14
1205.74	1149.33
1206.76	1150.07
1207.77	1150.88
1208.78	1151.96
1209.79	1153.5
1210.8	1154.75
1211.81	1155.99
1212.82	1156.76
1213.83	1157.71
1214.84	1159.6
1215.85	1161.94
1216.86	1164.73
1217.87	1167.17
1218.88	1169.08
1219.88	1170.11
1220.89	1171.04
1221.9	1171.44
1222.91	1171.28
1223.92	1170.98
1224.92	1169.89
1225.93	1168.23
1226.93	1165.76
1227.94	1162.29
1228.95	1157.3
1229.95	1150.29
1230.96	1141.84
1231.96	1132.93
1232.97	1123.85
1233.97	1115.75
1234.98	1107.7
1235.98	1099.96
1236.98	1092.24
1237.99	1084.59
1238.99	1077.01
1239.99	1069.61
1241	1062.56
1242	1055.97
1243	1049.7
1244	1043.78
1245	1038.2
1246	1033.02
1247.01	1028.47
1248.01	1024.3
1249.01	1020.83
1250.01	1018.11
1251.01	1016.56
1252.01	1016.39
1253	1017.33
1254	1019.34
1255	1022.23
1256	1026.7
1257	1031.28
1258	1035.52
1258.99	1038.75
1259.99	1040.49
1260.99	1041.5
1261.99	1041.6
1262.98	1040.83
1263.98	1038.72
1264.98	1035.66
1265.97	1031.44
1266.97	1026.02
1267.96	1019.43
1268.96	1011.21
1269.95	1002.81
1270.95	995.243
1271.94	989.046
1272.93	984.258
1273.93	981.151
1274.92	980.398
1275.91	980.853
1276.91	982.979
1277.9	986.242
1278.89	990.488
1279.88	995.609
1280.87	1000.65
1281.87	1006.39
1282.86	1012.29
1283.85	1020.26
1284.84	1024.84
1285.83	1028.34
1286.82	1028.47
1287.81	1027.82
1288.8	1024.98
1289.79	1020.77
1290.78	1013.09
1291.76	1002.62
1292.75	989.901
1293.74	977.579
1294.73	970.709
1295.72	966.86
1296.7	964.882
1297.69	964.814
1298.68	964.147
1299.66	963.901
1300.65	962.548
1301.64	962.12
1302.62	962.849
1303.61	969.232
1304.59	966.919
1305.58	964.928
1306.56	962.763
1307.55	960.255
1308.53	957.388
1309.51	954.274
1310.5	951.165
1311.48	947.416
1312.46	942.877
1313.45	939.274
1314.43	936.742
1315.41	937.701
1316.39	939.855
1317.38	944.15
1318.36	950.191
1319.34	958.127
1320.32	967.574
1321.3	978.267
1322.28	989.435
1323.26	999.121
1324.24	1007.75
1325.22	1014.33
1326.2	1020.9
1327.18	1023.71
1328.16	1021.55
1329.13	1015.34
1330.11	1006.12
1331.09	994.065
1332.07	979.967
1333.04	964.621
1334.02	948.087
1335	933.399
1335.97	920.237
1336.95	909.449
1337.93	900.968
1338.9	896.461
1339.88	889.622
1340.85	891.826
1341.83	887.499
1342.8	883.611
1343.78	880.541
1344.75	878.734
1345.72	877.536
1346.7	876.819
1347.67	875.902
1348.65	875.134
1349.62	873.991
1350.59	873.286
1351.56	873.001
1352.53	873.193
1353.51	874.114
1354.48	874.568
1355.45	874.754
1356.42	874.191
1357.39	871.761
1358.36	868.466
1359.33	864.094
1360.3	858.047
1361.27	851.986
1362.24	846.116
1363.21	841.2
1364.18	837.264
1365.14	835.158
1366.11	833.579
1367.08	832.852
1368.05	833.263
1369.02	834.903
1369.98	836.91
1370.95	839.043
1371.92	839.356
1372.88	837.589
1373.85	834.922
1374.81	831.743
1375.78	828.371
1376.74	825.397
1377.71	822.462
1378.68	819.702
1379.64	817.37
1380.6	815.373
1381.57	813.823
1382.53	812.954
1383.49	812.479
1384.46	812.346
1385.42	813.296
1386.38	814.571
1387.34	816.047
1388.31	816.797
1389.27	815.924
1390.23	814.611
1391.19	813.147
1392.15	811.658
1393.11	810.287
1394.07	808.804
1395.03	807.634
1395.99	806.184
1396.95	804.591
1397.91	802.78
1398.87	800.52
1399.83	797.882
1400.79	794.408
1401.75	790.81
1402.7	787.194
1403.66	783.663
1404.62	780.458
1405.58	777.526
1406.53	774.97
1407.49	772.742
1408.45	770.919
1409.4	769.552
1410.36	768.576
1411.31	767.804
1412.27	767.236
1413.23	766.652
1414.18	765.989
1415.13	765.297
1416.09	763.471
1417.04	761.815
1418	760.296
1418.95	759.034
1419.9	758.109
1420.86	757.61
1421.81	757.749
1422.76	758.203
1423.71	759.47
1424.67	761.228
1425.62	763.473
1426.57	765.993
1427.52	768.815
1428.47	771.74
1429.42	774.647
1430.37	776.903
1431.32	779.134
1432.27	781.6
1433.22	784.039
1434.17	786.303
1435.12	788.364
1436.07	790.031
1437.02	791.26
1437.96	791.844
1438.91	791.768
1439.86	790.917
1440.81	789.264
1441.75	787.014
1442.7	784.164
1443.65	780.837
1444.59	777.226
1445.54	773.345
1446.49	769.543
1447.43	765.523
1448.38	761.397
1449.32	757.276
1450.27	753.146
1451.21	749.019
1452.15	744.896
1453.1	740.799
1454.04	736.938
1454.98	733.238
1455.93	730.109
1456.87	727.21
1457.81	724.961
1458.76	723.244
1459.7	721.662
1460.64	720.342
1461.58	719.241
1462.52	717.934
1463.46	722.534
1464.4	714.389
1465.34	696.119
1466.28	688.306
1467.22	680.085
1468.16	681.215
1469.1	683.138
1470.04	690.059
1470.98	695.193
1471.92	699.437
1472.86	702.832
1473.8	699.17
1474.73	706.66
1475.67	706.679
1476.61	705.965
1477.55	704.595
1478.48	702.572
1479.42	700.438
1480.36	698.359
1481.29	696.716
1482.23	695.362
1483.16	694.416
1484.1	693.786
1485.03	694.24
1485.97	695.071
1486.9	695.901
1487.84	696.4
1488.77	696.629
1489.7	695.698
1490.64	694.378
1491.57	692.494
1492.5	690.22
1493.44	687.6
1494.37	684.954
1495.3	681.761
1496.23	678.655
1497.16	675.822
1498.09	673.472
1499.02	671.627
1499.96	670.444
1500.89	669.889
1501.82	670.101
1502.75	671.059
1503.68	672.675
1504.61	674.804
1505.53	677.429
1506.46	680.57
1507.39	684.177
1508.32	688.263
1509.25	692.405
1510.18	697.004
1511.1	701.95
1512.03	707.059
1512.96	712.888
1513.88	719.977
1514.81	729.82
1515.74	741.929
1516.66	756.478
1517.59	772.088
1518.51	788.52
1519.44	804.514
1520.36	819.97
1521.29	835.836
1522.21	851.233
1523.14	864.965
1524.06	874.849
1524.98	881.375
1525.91	885.284
1526.83	885.681
1527.75	882.363
1528.68	874.046
1529.6	867.416
1530.52	858.452
1531.44	847.664
1532.36	835.994
1533.29	824.456
1534.21	811.359
1535.13	798.044
1536.05	784.477
1536.97	770.988
1537.89	755.056
1538.81	736.935
1539.73	720.024
1540.65	703.542
1541.56	687.253
1542.48	671.004
1543.4	655.985
1544.32	643.336
1545.24	636.393
1546.16	629.665
1547.07	623.07
1547.99	616.924
1548.91	611.751
1549.82	607.589
1550.74	603.772
1551.66	599.464
1552.57	593.515
1553.49	586.773
1554.4	578.966
1555.32	570.212
1556.23	559.499
1557.15	547.616
1558.06	538.664
1558.97	530.113
1559.89	521.504
1560.8	512.725
1561.71	504.088
1562.63	495.842
1563.54	487.904
1564.45	480.31
1565.36	472.846
1566.28	466.36
1567.19	460.252
1568.1	454.443
1569.01	448.644
1569.92	442.67
1570.83	436.018
1571.74	429.138
1572.65	422.488
1573.56	416.186
1574.47	410.091
1575.38	404.667
1576.29	399.286
1577.2	394.585
1578.11	390.817
1579.01	386.997
1579.92	383.361
1580.83	379.85
1581.74	375.989
1582.64	371.73
1583.55	368.029
1584.46	364.255
1585.36	360.506
1586.27	356.44
1587.18	352.702
1588.08	348.857
1588.99	344.979
1589.89	341.371
1590.8	338.533
1591.7	334.393
1592.61	330.091
1593.51	325.74
1594.41	321.754
1595.32	317.523
1596.22	313.129
1597.12	308.573
1598.03	304.266
1598.93	299.996
1599.83	295.774
1600.73	291.634
1601.64	288.223
1602.54	284.752
1603.44	280.876
1604.34	277.319
1605.24	274.454
1606.14	271.631
1607.04	268.649
1607.94	264.981
1608.84	260.996
1609.74	256.785
1610.64	252.586
1611.54	248.564
1612.44	243.695
1613.33	237.59
1614.23	232.456
1615.13	227.699
1616.03	220.441
1616.92	217.562
1617.82	214.867
1618.72	211.733
1619.61	208.144
1620.51	203.424
1621.41	196.491
1622.3	189.517
1623.2	182.137
1624.09	175.388
1624.99	169.751
1625.88	165.132
1626.78	161.48
1627.67	158.608
1628.57	156.671
1629.46	155.275
1630.35	153.541
1631.25	151.196
1632.14	147.873
1632.85	145.739
1633.78	145.423
1634.71	144.327
1635.64	143.684
1636.57	143.441
1637.5	142.963
1638.42	142.895
1639.35	142.837
1640.28	143.441
1641.21	144.466
1642.13	144.686
1643.06	144.328
1643.99	144.031
1644.91	143.789
1645.84	143.031
1646.77	142.396
1647.69	141.435
1648.62	140.826
1649.54	139.958
1650.47	139.145
1651.39	138.692
1652.32	138.269
1653.24	137.568
1654.17	136.98
1655.09	136.791
1656.01	136.762
1656.94	136.852
1657.86	137.643
1658.78	137.98
1659.71	137.69
1660.63	137.342
1661.55	137.228
1662.47	137.054
1663.4	136.631
1664.32	136.275
1665.24	135.417
1666.16	134.818
1667.08	134.121
1668	134.12
1668.92	134.525
1669.84	134.938
1670.76	135.485
1671.68	135.279
1672.6	134.97
1673.52	134.097
1674.44	133.461
1675.36	132.494
1676.28	131.889
1677.2	131.462
1678.12	131.004
1679.03	130.966
1679.95	131.044
1680.87	131.252
1681.79	131.216
1682.7	130.821
1683.62	130.696
1684.54	130.443
1685.45	130.252
1686.37	130.189
1687.29	130.409
1688.2	130.46
1689.12	130.365
1690.03	129.589
1690.95	128.527
1691.86	127.554
1692.78	126.737
1693.69	125.827
1694.61	125.333
1695.52	124.573
1696.43	124.385
1697.35	124.803
1698.26	124.853
1699.17	124.918
1700.09	124.744
1701	124.205
1701.91	123.648
1702.82	123.086
1703.74	122.713
1704.65	122.069
1705.56	121.58
1706.47	120.873
1707.38	120.427
1708.29	120.049
1709.2	119.766
1710.11	119.674
1711.02	118.998
1711.93	118.457
1712.84	117.728
1713.75	117.09
1714.66	117.053
1715.57	117.083
1716.48	116.308
1717.39	116.276
1718.3	115.945
1719.21	115.885
1720.11	115.799
1721.02	115.906
1721.93	115.485
1722.84	115.98
1723.74	117.69
1724.65	118.654
1725.56	119.434
1726.46	119.679
1727.37	119.666
1728.28	119.188
1729.18	117.887
1730.09	116.904
1730.99	115.449
1731.9	113.907
1732.8	112.513
1733.71	111.637
1734.61	110.724
1735.52	111.972
1736.42	111.61
1737.32	111.326
1738.23	111.192
1739.13	111.464
1740.03	111.71
1740.94	112.13
1741.84	112.036
1742.74	112.024
1743.64	112.457
1744.54	112.738
1745.45	112.837
1746.35	112.847
1747.25	113.038
1748.15	112.808
1749.05	112.329
1749.95	111.891
1750.85	111.907
1751.75	111.984
1752.65	111.399
1753.55	111.271
1754.45	111.078
1755.35	111.54
1756.25	111.698
1757.15	111.46
1758.05	111.419
1758.94	111.434
1759.84	110.979
1760.74	111.075
1761.64	111.387
1762.53	111.117
1763.43	110.933
1764.33	110.819
1765.23	110.573
1766.12	110.069
1767.02	109.588
1767.91	109.312
1768.81	108.854
1769.71	108.844
1770.6	108.567
1771.5	108.371
1772.39	108.312
1773.29	108.292
1774.18	108.197
1775.07	108.016
1775.97	107.598
1776.86	107.719
1777.76	107.524
1778.65	107.692
1779.54	107.918
1780.44	107.668
1781.33	106.695
1782.22	106.26
1783.11	105.959
1784.01	105.844
1784.9	105.397
1785.79	105.449
1786.68	105.346
1787.57	105.724
1788.46	107.84
1789.35	106.723
1790.24	104.972
1791.13	103.371
1792.02	101.853
1792.91	100.347
1793.8	98.8226
1794.69	98.679
1795.58	98.541
1796.47	105.754
1797.36	108.612
1798.25	106.793
1799.14	107.144
