Acq. time (s)=	15
Accumulations=	2
Range (cm-¹)=	600...1800
Windows=	2
Autofocus=	Off
AutoExposure=	Off
Spike filter=	Multiple accum.
Delay time (s)=	1
Binning=	1
Readout mode=	Signal
DeNoise=	Standard
ICS correction=	Off
Dark correction=	Off
Inst. Process=	Off
Instrument=	XploRA
Detector=	Syncerity
Objective=	x20LWD
Grating=	1200 gr/mm
Filter=	25%
Laser (nm)=	785 
Slit (µm)=	100 
Hole (µm)=	300 
Laser pol=	None
Raman pol=	None
Output=	Camera
StageXY=	Marzhauser
StageZ=	
X (µm)=	-1474.5
Y (µm)=	-1528.6
Project=	
Sample=	
Site=	
Title=	Cmm1 s-t
Remark=	
Date=	22.07.2022 02:18
Acquired=	22.07.2022 02:18:33
600.839	363.911
602.009	366.128
603.178	367.37
604.347	370.48
605.516	372.836
606.684	374.566
607.852	375.519
609.02	376.603
610.187	376.505
611.355	376.908
612.521	378.391
613.688	380.235
614.854	381.831
616.02	383.922
617.185	386.264
618.351	388.568
619.516	391.291
620.681	394.746
621.846	398.166
623.009	401.25
624.174	403.874
625.337	406.093
626.501	408.034
627.664	409.942
628.826	411.375
629.988	412.695
631.151	412.961
632.313	412.938
633.474	412.639
634.635	412.039
635.797	412.092
636.958	411.214
638.117	410.042
639.278	409.772
640.437	410.731
641.597	412.571
642.756	414.565
643.915	416.508
645.074	418.161
646.233	418.508
647.391	418.563
648.548	418.917
649.706	418.752
650.863	418.67
652.02	418.449
653.176	417.458
654.333	416.42
655.489	416.139
656.645	415.824
657.8	414.225
658.955	412.915
660.11	409.282
661.264	408.354
662.419	408.218
663.573	409.207
664.727	411.799
665.88	415.52
667.033	419.497
668.186	420.822
669.338	421.871
670.491	421.167
671.643	419.859
672.794	419.257
673.945	421.529
675.096	424.349
676.247	426.434
677.398	427.73
678.548	427.238
679.698	423.559
680.847	426.029
681.997	425.499
683.146	424.736
684.294	423.495
685.443	422.8
686.591	422.164
687.739	421.985
688.887	422.348
690.034	422.993
691.181	423.953
692.328	425.481
693.474	428.57
694.62	430.3
695.766	432.162
696.911	434.041
698.057	435.464
699.202	437.006
700.346	438.167
701.49	438.737
702.635	438.579
703.779	438.072
704.922	436.367
706.065	434.647
707.208	432.838
708.351	431.808
709.493	429.643
710.635	428.086
711.776	427.015
712.918	425.696
714.059	423.984
715.2	422.421
716.341	421.691
717.481	421.358
718.621	421.158
719.761	421.296
720.9	421.179
722.04	421.056
723.178	420.57
724.317	421.048
725.455	421.322
726.594	421.37
727.731	422.152
728.868	422.859
730.005	423.164
731.142	423.854
732.279	424.092
733.415	424.663
734.551	424.622
735.686	424.434
736.822	424.915
737.957	425.611
739.092	426.734
740.226	426.886
741.36	427.258
742.495	427.343
743.628	427.223
744.762	427.166
745.895	426.791
747.027	427.001
748.16	426.404
749.292	424.835
750.423	423.257
751.555	421.142
752.686	418.871
753.817	416.126
754.949	413.229
756.079	410.138
757.209	407.328
758.339	404.879
759.469	402.15
760.597	399.779
761.727	397.208
762.856	394.937
763.984	392.704
765.112	390.656
766.24	388.328
767.367	386.831
768.494	386.404
769.622	386.287
770.749	386.226
771.874	386.115
773.001	385.931
774.127	386.041
775.253	386.447
776.377	386.848
777.503	386.597
778.627	386.727
779.751	387.403
780.876	388.069
782	388.598
783.123	388.558
784.246	388.007
785.37	387.76
786.492	386.371
787.614	384.169
788.737	381.69
789.858	378.927
790.979	377.236
792.101	375.493
793.222	374.882
794.342	374.279
795.463	372.854
796.583	371.093
797.702	369.828
798.822	368.233
799.942	367.231
801.06	366.386
802.179	365.739
803.297	365.299
804.415	365.445
805.533	365.767
806.651	365.82
807.768	365.592
808.885	365.4
810.001	365.437
811.118	365.232
812.233	364.343
813.349	363.847
814.464	363.182
815.58	362.504
816.695	361.291
817.809	359.853
818.924	358.174
820.038	357.116
821.152	356.052
822.265	355.438
823.378	355.043
824.491	355.171
825.604	354.984
826.716	355.23
827.828	355.638
828.94	355.176
830.051	355.243
831.162	356.051
832.273	356.508
833.383	355.741
834.494	355.016
835.604	354.054
836.714	353.201
837.823	351.911
838.932	349.99
840.041	348.654
841.15	347.196
842.258	346.092
843.366	344.292
844.474	341.667
845.581	339.786
846.688	338.727
847.795	338.219
848.901	339.201
850.008	340.159
851.115	340.959
852.22	342.178
853.325	341.959
854.43	341.247
855.536	340.098
856.64	338.895
857.745	337.522
858.848	335.967
859.952	335.625
861.055	334.675
862.158	334.529
863.261	334.046
864.364	333.387
865.466	333.289
866.568	332.976
867.67	332.908
868.771	332.734
869.873	332.157
870.973	332.287
872.074	331.965
873.174	331.677
874.274	330.796
875.374	329.57
876.473	328.623
877.572	326.635
878.671	325.108
879.77	324.151
880.868	323.369
881.966	322.544
883.064	321.987
884.161	321.616
885.258	321.275
886.356	320.326
887.452	319.309
888.548	318.264
889.645	316.894
890.74	315.703
891.836	314.442
892.931	313.322
894.025	312.415
895.12	312.158
896.214	312.496
897.308	312.349
898.402	312.901
899.495	313.229
900.588	313.89
901.681	314.267
902.774	314.926
903.866	314.835
904.958	314.806
906.05	314.626
907.142	314.565
908.233	314.762
909.324	314.492
910.414	314.048
911.504	313.874
912.594	313.965
913.684	313.782
914.774	314.524
915.863	315.098
916.952	315.872
918.041	316.4
919.129	316.346
920.217	315.763
921.305	315.228
922.392	314.488
923.48	313.435
924.567	312.316
925.653	311.314
926.74	310.134
927.825	308.299
928.911	306.24
929.997	304.53
931.082	302.899
932.166	301.765
933.252	300.665
934.336	300.005
935.42	299.612
936.504	298.653
937.587	297.566
938.671	296.192
939.753	295.461
940.836	294.62
941.919	293.894
943	292.992
944.082	292.639
945.163	291.917
946.245	291.639
947.326	291.639
948.406	290.627
949.487	289.573
950.567	288.36
951.647	286.862
952.727	285.645
953.805	284.876
954.885	284.307
955.964	283.766
957.042	283.108
958.12	281.824
959.198	281.156
960.276	280.491
961.352	280.106
962.43	278.897
963.507	277.851
964.583	277.387
965.659	277.184
966.735	276.718
967.81	277.101
968.885	276.988
969.961	277.092
971.036	276.703
972.11	276.064
973.184	275.919
974.258	277.224
975.332	278.985
976.405	281.26
977.478	282.951
978.551	284.196
979.624	284.506
980.696	284.421
981.767	285.238
982.839	286.603
983.911	286.867
984.982	287.537
986.052	287.611
987.123	287.673
988.193	288.053
989.263	286.743
990.333	284.814
991.403	283.715
992.471	283.208
993.54	283.077
994.608	283.069
995.677	282.432
996.745	280.857
997.812	280.127
998.88	279.496
999.947	278.645
1001.01	277.976
1002.08	276.883
1003.15	276.024
1004.21	274.894
1005.28	273.441
1006.34	272.296
1007.41	270.997
1008.47	269.704
1009.54	268.492
1010.6	266.995
1011.67	265.749
1012.73	264.167
1013.79	262.899
1014.86	261.877
1015.92	260.112
1016.98	258.728
1018.05	257.473
1019.11	256.661
1020.17	256.549
1021.23	256.262
1022.29	255.492
1023.35	254.714
1024.41	253.855
1025.47	251.148
1026.53	250.08
1027.59	250.462
1028.65	251.875
1029.71	253.331
1030.77	254.914
1031.83	257.788
1032.89	260.436
1033.95	261.432
1035	259.721
1036.06	258.261
1037.12	257.153
1038.18	256.098
1039.23	254.192
1040.29	252.255
1041.35	250.893
1042.4	250.097
1043.46	249.809
1044.51	248.374
1045.57	247.716
1046.62	247.586
1047.68	246.733
1048.73	246.341
1049.79	246.65
1050.84	246.507
1051.89	245.083
1052.95	242.635
1054	239.671
1055.05	234.719
1056.1	231.58
1057.16	231.752
1058.21	232.562
1059.26	233.663
1060.31	238.621
1061.36	241.248
1062.41	243.324
1063.46	243.511
1064.51	243.141
1065.56	242.675
1066.61	241.785
1067.66	240.731
1068.71	239.337
1069.76	238.349
1070.81	236.929
1071.85	235.712
1072.9	234.646
1073.95	233.297
1075	230.453
1076.04	229.732
1077.09	230.184
1078.14	231.205
1079.18	232.413
1080.23	233.332
1081.27	233.996
1082.32	234.428
1083.36	234.208
1084.41	233.02
1085.45	232.169
1086.5	231.949
1087.54	231.38
1088.59	230.64
1089.63	230.538
1090.67	230.043
1091.71	229.12
1092.76	229.295
1093.8	229.239
1094.84	229.645
1095.88	229.236
1096.92	229.503
1097.97	229.745
1099.01	229.669
1100.05	229.455
1101.09	228.715
1102.13	228.397
1103.17	228.015
1104.21	226.832
1105.25	226.689
1106.28	226.539
1107.32	226.538
1108.36	225.697
1109.4	225.341
1110.44	225.323
1111.47	224.791
1112.51	224.406
1113.55	224.071
1114.59	223.285
1115.62	222.309
1116.66	221.368
1117.69	221.044
1118.73	220.045
1119.77	219.233
1120.8	218.214
1121.84	216.471
1122.87	215.624
1123.9	214.755
1124.94	214.703
1125.97	214.931
1127	214.22
1128.04	213.88
1129.07	213.886
1130.1	214.743
1131.13	216.01
1132.17	217.475
1133.2	218.593
1134.23	220.383
1135.26	221.889
1136.29	223.132
1137.32	223.867
1138.35	224.6
1139.38	225.033
1140.41	226.367
1141.44	227.859
1142.47	229.224
1143.5	230.525
1144.53	231.945
1145.56	233.366
1146.59	234.458
1147.61	235.707
1148.64	236.881
1149.67	238.161
1150.7	239.479
1151.72	240.523
1152.75	241.14
1153.77	241.353
1154.8	241.493
1155.83	241.086
1156.85	240.191
1157.88	238.853
1158.9	237.485
1159.93	235.376
1160.95	232.627
1161.97	229.69
1163	226.938
1164.02	224.192
1165.04	221.249
1166.07	217.96
1167.09	215.196
1168.11	213.329
1169.13	211.017
1170.16	208.806
1171.18	207.111
1172.2	206.467
1173.22	207.772
1174.24	207.712
1175.26	209.636
1176.28	212.61
1177.3	214.252
1178.32	215.864
1179.34	221.314
1180.36	222.169
1181.38	223.016
1182.4	171.725
1183.41	210.119
1184.43	226.273
1185.45	227
1186.47	227.586
1187.48	227.933
1188.5	222.637
1189.52	217.575
1190.53	215.105
1191.55	211.566
1192.56	209.34
1193.58	206.855
1194.59	206.314
1195.61	204.85
1196.62	202.512
1197.64	201.033
1198.65	199.876
1199.67	199.083
1200.68	198.556
1201.69	198.317
1202.71	198.418
1203.72	198.815
1204.73	199.795
1205.74	200.903
1206.76	201.67
1207.77	202.561
1208.78	203.288
1209.79	203.659
1210.8	203.797
1211.81	203.876
1212.82	203.663
1213.83	203.4
1214.84	203.206
1215.85	202.267
1216.86	201.94
1217.87	202.271
1218.88	202.574
1219.88	203.173
1220.89	203.502
1221.9	203.148
1222.91	202.847
1223.92	202.621
1224.92	202.631
1225.93	201.983
1226.93	200.917
1227.94	199.693
1228.95	197.728
1229.95	195.268
1230.96	193.368
1231.96	191.756
1232.97	190.495
1233.97	189.553
1234.98	188.638
1235.98	187.5
1236.98	187.231
1237.99	186.932
1238.99	186.726
1239.99	186.527
1241	185.369
1242	184.761
1243	184.35
1244	183.835
1245	182.854
1246	181.413
1247.01	180.441
1248.01	179.443
1249.01	178.271
1250.01	177.077
1251.01	175.743
1252.01	174.668
1253	174.477
1254	174.275
1255	174.447
1256	174.495
1257	175.276
1258	176.269
1258.99	177.374
1259.99	178.577
1260.99	179.93
1261.99	181.056
1262.98	181.932
1263.98	182.26
1264.98	182.893
1265.97	183.624
1266.97	184.106
1267.96	183.572
1268.96	183.22
1269.95	182.273
1270.95	181.004
1271.94	179.552
1272.93	177.704
1273.93	176.069
1274.92	174.359
1275.91	173.265
1276.91	173.237
1277.9	173.54
1278.89	173.587
1279.88	173.699
1280.87	174.331
1281.87	175.083
1282.86	175.61
1283.85	176.14
1284.84	177.343
1285.83	177.553
1286.82	178.603
1287.81	178.177
1288.8	177.561
1289.79	175.986
1290.78	174.322
1291.76	172.054
1292.75	170.026
1293.74	168.255
1294.73	166.089
1295.72	163.944
1296.7	161.984
1297.69	161.647
1298.68	161.918
1299.66	163.472
1300.65	165.356
1301.64	167.538
1302.62	170.345
1303.61	172.019
1304.59	173.341
1305.58	173.934
1306.56	174.41
1307.55	174.299
1308.53	173.634
1309.51	172.778
1310.5	170.092
1311.48	169.205
1312.46	168.549
1313.45	167.586
1314.43	166.813
1315.41	166.663
1316.39	166.748
1317.38	167.109
1318.36	167.678
1319.34	168.63
1320.32	169.527
1321.3	170.503
1322.28	171.195
1323.26	172.354
1324.24	173.298
1325.22	174.171
1326.2	174.667
1327.18	175.213
1328.16	175.312
1329.13	174.734
1330.11	173.645
1331.09	172.831
1332.07	171.809
1333.04	169.862
1334.02	168.146
1335	165.17
1335.97	162.537
1336.95	160.337
1337.93	161.373
1338.9	160.552
1339.88	158.852
1340.85	157.256
1341.83	155.956
1342.8	154.869
1343.78	154.011
1344.75	153.683
1345.72	153.367
1346.7	153.131
1347.67	153.158
1348.65	153.246
1349.62	152.74
1350.59	153.565
1351.56	153.782
1352.53	154.416
1353.51	154.819
1354.48	154.681
1355.45	154.371
1356.42	154.201
1357.39	153.511
1358.36	151.946
1359.33	150.682
1360.3	149.189
1361.27	147.919
1362.24	146.671
1363.21	145.061
1364.18	143.786
1365.14	142.606
1366.11	141.892
1367.08	141.401
1368.05	141.121
1369.02	140.708
1369.98	141.262
1370.95	141.776
1371.92	142.701
1372.88	143.441
1373.85	143.864
1374.81	144.334
1375.78	144.85
1376.74	145.158
1377.71	145.566
1378.68	145.76
1379.64	144.68
1380.6	144.091
1381.57	144.23
1382.53	145.241
1383.49	144.809
1384.46	144.31
1385.42	143.559
1386.38	142.745
1387.34	142.057
1388.31	141.106
1389.27	140.529
1390.23	139.967
1391.19	139.063
1392.15	138.081
1393.11	136.966
1394.07	137.051
1395.03	137.646
1395.99	138.297
1396.95	139.165
1397.91	139.819
1398.87	140.545
1399.83	140.906
1400.79	139.716
1401.75	138.806
1402.7	138.306
1403.66	138.044
1404.62	138.018
1405.58	138.278
1406.53	138.615
1407.49	138.497
1408.45	137.734
1409.4	136.955
1410.36	135.893
1411.31	134.722
1412.27	133.86
1413.23	132.668
1414.18	131.244
1415.13	130.065
1416.09	129.619
1417.04	128.503
1418	128.38
1418.95	128.344
1419.9	128.364
1420.86	128.604
1421.81	129.45
1422.76	130.835
1423.71	132.443
1424.67	133.94
1425.62	135.639
1426.57	136.616
1427.52	137.636
1428.47	137.877
1429.42	137.671
1430.37	136.562
1431.32	135.989
1432.27	135.581
1433.22	135.855
1434.17	136.412
1435.12	137.113
1436.07	137.562
1437.02	138.238
1437.96	139.223
1438.91	139.443
1439.86	138.638
1440.81	138.022
1441.75	137.295
1442.7	136
1443.65	135.175
1444.59	133.786
1445.54	132.588
1446.49	131.571
1447.43	130.983
1448.38	130.272
1449.32	129.732
1450.27	129.145
1451.21	128.801
1452.15	128.141
1453.1	127.974
1454.04	127.704
1454.98	127.488
1455.93	127.444
1456.87	127.494
1457.81	127.683
1458.76	127.784
1459.7	127.718
1460.64	127.578
1461.58	127.804
1462.52	127.801
1463.46	127.887
1464.4	128.185
1465.34	127.776
1466.28	127.316
1467.22	127.151
1468.16	126.891
1469.1	126.481
1470.04	125.789
1470.98	124.979
1471.92	124.633
1472.86	124.587
1473.8	124.74
1474.73	124.636
1475.67	124.108
1476.61	123.779
1477.55	122.963
1478.48	122.851
1479.42	122.658
1480.36	122.391
1481.29	122.327
1482.23	121.469
1483.16	120.639
1484.1	119.849
1485.03	119.27
1485.97	119.061
1486.9	118.597
1487.84	118.393
1488.77	118.445
1489.7	118.906
1490.64	119.334
1491.57	120.113
1492.5	121.019
1493.44	121.916
1494.37	122.425
1495.3	123.128
1496.23	123.41
1497.16	123.498
1498.09	123.085
1499.02	122.654
1499.96	122.198
1500.89	121.74
1501.82	121.277
1502.75	120.836
1503.68	120.416
1504.61	119.647
1505.53	119.393
1506.46	119.494
1507.39	119.336
1508.32	119.977
1509.25	120.932
1510.18	121.97
1511.1	123.334
1512.03	124.386
1512.96	126.192
1513.88	128.197
1514.81	130.292
1515.74	132.875
1516.66	135.162
1517.59	137.615
1518.51	139.931
1519.44	142.081
1520.36	144.619
1521.29	147.281
1522.21	149.476
1523.14	150.904
1524.06	152.046
1524.98	152.289
1525.91	151.8
1526.83	151.274
1527.75	150.047
1528.68	149.037
1529.6	148.515
1530.52	147.971
1531.44	147.174
1532.36	146.045
1533.29	144.798
1534.21	143.953
1535.13	142.673
1536.05	141.226
1536.97	140.169
1537.89	138.194
1538.81	135.394
1539.73	132.214
1540.65	129.106
1541.56	126.075
1542.48	123.536
1543.4	120.832
1544.32	118.918
1545.24	117.576
1546.16	115.709
1547.07	114.766
1547.99	114.213
1548.91	113.845
1549.82	113.621
1550.74	113.459
1551.66	114.329
1552.57	114.683
1553.49	114.568
1554.4	113.856
1555.32	113.242
1556.23	112.439
1557.15	111.778
1558.06	110.578
1558.97	109.157
1559.89	107.382
1560.8	105.812
1561.71	104.623
1562.63	103.717
1563.54	102.789
1564.45	102.089
1565.36	101.841
1566.28	101.515
1567.19	101.089
1568.1	100.404
1569.01	99.816
1569.92	99.3689
1570.83	98.9955
1571.74	98.8438
1572.65	98.9992
1573.56	98.4806
1574.47	97.6574
1575.38	96.9064
1576.29	96.2811
1577.2	95.8896
1578.11	95.5938
1579.01	95.6831
1579.92	95.7877
1580.83	96.2903
1581.74	96.2531
1582.64	96.1606
1583.55	96.0344
1584.46	95.9999
1585.36	95.9356
1586.27	95.684
1587.18	95.4821
1588.08	95.2427
1588.99	95.1101
1589.89	95.1042
1590.8	95.2944
1591.7	95.2857
1592.61	95.4341
1593.51	95.7677
1594.41	96.2715
1595.32	97.0263
1596.22	97.2282
1597.12	97.1552
1598.03	96.8671
1598.93	97.3809
1599.83	97.9316
1600.73	98.2055
1601.64	98.46
1602.54	98.6225
1603.44	98.6938
1604.34	98.8223
1605.24	98.954
1606.14	99.1217
1607.04	98.9293
1607.94	98.5707
1608.84	98.2926
1609.74	98.2143
1610.64	98.5287
1611.54	98.5731
1612.44	98.1973
1613.33	97.3816
1614.23	96.6706
1615.13	96.2309
1616.03	95.5279
1616.92	94.9805
1617.82	94.611
1618.72	94.3592
1619.61	94.2681
1620.51	94.2801
1621.41	94.354
1622.3	94.3492
1623.2	94.4261
1624.09	94.3016
1624.99	94.2568
1625.88	94.3859
1626.78	94.4082
1627.67	94.5847
1628.57	95.0044
1629.46	95.1644
1630.35	94.9831
1631.25	94.7965
1632.14	94.6389
1632.85	94.5424
1633.78	94.3377
1634.71	93.7735
1635.64	92.4355
1636.57	91.2229
1637.5	90.1884
1638.42	89.3205
1639.35	88.4202
1640.28	87.9796
1641.21	87.2515
1642.13	86.8803
1643.06	86.1404
1643.99	86.0507
1644.91	86.1874
1645.84	85.9763
1646.77	86.0469
1647.69	86.3978
1648.62	86.6394
1649.54	85.8387
1650.47	85.4989
1651.39	85.1487
1652.32	85.4274
1653.24	85.2573
1654.17	84.9785
1655.09	84.7104
1656.01	84.5039
1656.94	84.4405
1657.86	84.2941
1658.78	84.2302
1659.71	84.17
1660.63	84.1394
1661.55	84.0864
1662.47	84.081
1663.4	84.0567
1664.32	84.0783
1665.24	84.099
1666.16	84.1495
1667.08	84.1839
1668	84.2712
1668.92	84.3388
1669.84	84.4724
1670.76	84.6695
1671.68	84.8769
1672.6	84.9783
1673.52	85.3101
1674.44	85.7253
1675.36	86.3111
1676.28	86.7733
1677.2	87.1571
1678.12	87.4866
1679.03	87.7974
1679.95	88.0754
1680.87	87.4782
1681.79	85.9998
1682.7	84.491
1683.62	82.8537
1684.54	81.7412
1685.45	81.1382
1686.37	80.7891
1687.29	80.6261
1688.2	80.6115
1689.12	80.5387
1690.03	80.6094
1690.95	81.3548
1691.86	81.9389
1692.78	82.0255
1693.69	82.1759
1694.61	82.2678
1695.52	82.2731
1696.43	81.2182
1697.35	79.5568
1698.26	77.8592
1699.17	76.8248
1700.09	75.864
1701	74.8181
1701.91	74.0888
1702.82	73.8845
1703.74	74.0207
1704.65	74.6062
1705.56	76.6968
1706.47	78.1014
1707.38	78.7865
1708.29	79.6084
1709.2	80.5602
1710.11	80.3309
1711.02	79.4914
1711.93	78.6591
1712.84	77.8741
1713.75	77.3958
1714.66	76.9071
1715.57	76.5839
1716.48	76.3425
1717.39	76.1954
1718.3	76.1195
1719.21	76.2646
1720.11	76.4466
1721.02	76.6549
1721.93	76.928
1722.84	77.1762
1723.74	77.4732
1724.65	77.7093
1725.56	78.0388
1726.46	78.0901
1727.37	77.6429
1728.28	77.2157
1729.18	76.9498
1730.09	76.7597
1730.99	76.5517
1731.9	76.1645
1732.8	75.7537
1733.71	75.5681
1734.61	75.0588
1735.52	74.8982
1736.42	74.8332
1737.32	74.6512
1738.23	74.3691
1739.13	73.6343
1740.03	73.0117
1740.94	72.6073
1741.84	72.1462
1742.74	71.91
1743.64	72.2539
1744.54	72.5168
1745.45	73.2966
1746.35	74.1992
1747.25	74.6485
1748.15	74.5164
1749.05	74.3881
1749.95	74.234
1750.85	74.1225
1751.75	73.9625
1752.65	73.8523
1753.55	73.6473
1754.45	73.4987
1755.35	73.2236
1756.25	72.9939
1757.15	72.4902
1758.05	72.1224
1758.94	71.7785
1759.84	71.4459
1760.74	71.1738
1761.64	70.9846
1762.53	70.8045
1763.43	70.568
1764.33	70.389
1765.23	70.4813
1766.12	71.8007
1767.02	73.19
1767.91	73.9475
1768.81	73.6348
1769.71	73.3833
1770.6	72.919
1771.5	72.3739
1772.39	70.0625
1773.29	68.7141
1774.18	68.7151
1775.07	68.9358
1775.97	69.2871
1776.86	69.539
1777.76	69.6639
1778.65	69.9858
1779.54	70.1006
1780.44	70.4977
1781.33	70.8572
1782.22	71.1972
1783.11	71.162
1784.01	70.4675
1784.9	69.8668
1785.79	69.1941
1786.68	68.6125
1787.57	67.9134
1788.46	67.3736
1789.35	67.1848
1790.24	67.2995
1791.13	67.6388
1792.02	68.0598
1792.91	67.5833
1793.8	66.8662
1794.69	66.4581
1795.58	66.1141
1796.47	65.9638
1797.36	66.0039
1798.25	66.3536
1799.14	67.8012
