Acq. time (s)=	15
Accumulations=	2
Range (cm-¹)=	600...1800
Windows=	2
Autofocus=	Off
AutoExposure=	Off
Spike filter=	Multiple accum.
Delay time (s)=	1
Binning=	1
Readout mode=	Signal
DeNoise=	Standard
ICS correction=	Off
Dark correction=	Off
Inst. Process=	Off
Instrument=	XploRA
Detector=	Syncerity
Objective=	x20LWD
Grating=	1200 gr/mm
Filter=	25%
Laser (nm)=	785 
Slit (µm)=	100 
Hole (µm)=	300 
Laser pol=	None
Raman pol=	None
Output=	Camera
StageXY=	Marzhauser
StageZ=	
X (µm)=	6084.9
Y (µm)=	2499.3
Project=	
Sample=	
Site=	
Title=	CLsoP1 f4
Remark=	
Date=	06.04.2022 11:31
Acquired=	06.04.2022 11:31:03
600.731	1763.51
601.9	1772.33
603.069	1784.34
604.238	1798.43
605.406	1810.07
606.575	1825.36
607.743	1841.84
608.91	1855.07
610.078	1866.42
611.245	1875.3
612.411	1881.56
613.579	1887.43
614.745	1892.16
615.91	1895.02
617.076	1899.15
618.241	1903.02
619.407	1906.27
620.571	1907.49
621.735	1910.27
622.9	1912.29
624.063	1916.36
625.227	1923.05
626.39	1929.82
627.553	1940.43
628.716	1946.77
629.879	1951.67
631.041	1957.37
632.203	1961.51
633.364	1962.72
634.526	1962.23
635.686	1960.14
636.847	1958.5
638.007	1953.91
639.167	1946.8
640.327	1941.46
641.486	1939.6
642.645	1936.04
643.805	1934.71
644.963	1934.44
646.122	1936.4
647.28	1937.8
648.438	1938.47
649.594	1939.43
650.752	1941.41
651.909	1942.46
653.065	1940.92
654.221	1939.96
655.377	1936.14
656.533	1934.25
657.688	1933.71
658.843	1932.27
659.998	1933.1
661.153	1933.44
662.307	1935.3
663.461	1932.78
664.615	1930.91
665.768	1929.89
666.921	1931.84
668.074	1941.89
669.226	1944.71
670.379	1947.11
671.53	1949.27
672.682	1950.47
673.833	1952.14
674.984	1952.89
676.135	1953.42
677.285	1953.15
678.436	1953.7
679.586	1951.11
680.735	1949.39
681.884	1942.96
683.033	1940.01
684.182	1940.68
685.33	1938.27
686.478	1937.45
687.626	1938.47
688.774	1940.34
689.921	1941.33
691.068	1943.37
692.214	1943.71
693.361	1942.11
694.507	1939.23
695.652	1928.51
696.798	1922.31
697.943	1920
699.088	1917.35
700.233	1913.4
701.377	1909.75
702.521	1905.56
703.665	1900.18
704.808	1896.36
705.951	1892.84
707.094	1891.21
708.236	1889.04
709.379	1887.26
710.522	1884.9
711.663	1883.43
712.804	1878.37
713.946	1872.76
715.086	1867.48
716.227	1863.75
717.367	1861.74
718.507	1858.17
719.647	1855.64
720.786	1852.98
721.925	1849.4
723.064	1845.22
724.202	1842.13
725.341	1837.38
726.479	1833.1
727.616	1827.9
728.753	1825.89
729.89	1824.51
731.027	1825.29
732.163	1826.25
733.3	1831.16
734.436	1835.82
735.572	1844.94
736.707	1844.85
737.842	1863.7
738.977	1875.06
740.111	1879.63
741.246	1882.46
742.379	1884.53
743.513	1882.79
744.646	1880.37
745.779	1874.37
746.911	1868.04
748.044	1857.96
749.176	1849.59
750.308	1838.95
751.44	1829.67
752.571	1819.93
753.702	1810.67
754.833	1802.54
755.963	1793.41
757.093	1785.35
758.223	1777.77
759.353	1769.77
760.481	1763.13
761.61	1755.38
762.74	1747.75
763.867	1742.88
764.996	1739.64
766.124	1735.5
767.251	1732.42
768.378	1729.93
769.505	1728.54
770.631	1726.19
771.758	1723.39
772.884	1720.98
774.01	1719.45
775.136	1717.34
776.261	1711.45
777.386	1701.45
778.51	1690.94
779.634	1681.67
780.758	1671.36
781.882	1660.24
783.006	1650.73
784.129	1642.74
785.252	1635.79
786.375	1631.69
787.497	1634.54
788.619	1630.49
789.741	1626.21
790.862	1621.64
791.983	1616.9
793.104	1613.8
794.225	1610.69
795.345	1607.71
796.465	1604.4
797.585	1602.37
798.704	1599.61
799.823	1597.12
800.943	1593.86
802.061	1587.81
803.179	1582.74
804.297	1576.34
805.415	1571.44
806.532	1567.17
807.649	1563.59
808.766	1562.27
809.883	1561.61
810.999	1561.48
812.115	1555.35
813.231	1546.09
814.346	1540.33
815.461	1536.95
816.577	1534.83
817.691	1535.03
818.805	1536.21
819.919	1541.43
821.033	1544.99
822.146	1546.49
823.259	1546.11
824.372	1546.24
825.485	1546.5
826.597	1546.54
827.709	1548.3
828.82	1548.31
829.932	1549.96
831.043	1551.8
832.154	1550.25
833.265	1548.37
834.375	1545.04
835.484	1541.02
836.594	1533.55
837.704	1524.96
838.813	1517.43
839.922	1513.02
841.03	1514.01
842.138	1516.19
843.246	1518.54
844.354	1519.82
845.461	1516
846.568	1512.09
847.675	1506.59
848.782	1502.32
849.888	1498.11
850.994	1493.27
852.1	1489.28
853.205	1486.15
854.31	1483.91
855.415	1479.65
856.52	1475.4
857.624	1469.64
858.727	1465.14
859.831	1460.91
860.935	1456.38
862.038	1452.56
863.141	1447.85
864.243	1442.94
865.345	1438.46
866.448	1434.28
867.549	1430.21
868.651	1427.36
869.751	1423.74
870.852	1421.22
871.953	1416.83
873.053	1412.08
874.153	1408.96
875.253	1406.34
876.352	1404.42
877.451	1401.83
878.55	1400.24
879.648	1398.43
880.747	1396
881.845	1392.58
882.943	1390.64
884.039	1389.11
885.137	1385.91
886.233	1382.76
887.33	1381.19
888.426	1378.61
889.522	1377.5
890.618	1377.29
891.713	1376.99
892.808	1376.65
893.903	1375.64
894.998	1376.35
896.092	1377.18
897.186	1378.4
898.28	1379.82
899.374	1383.44
900.467	1381.78
901.559	1377
902.652	1373.92
903.744	1371.42
904.836	1370.72
905.927	1371.32
907.019	1373.21
908.111	1376.27
909.201	1382.02
910.291	1386.95
911.382	1390.91
912.472	1394.23
913.562	1394.52
914.651	1394.3
915.741	1392.59
916.829	1390.41
917.918	1386.16
919.006	1380.71
920.094	1374.36
921.181	1368.11
922.269	1358.76
923.356	1350.88
924.443	1340.84
925.53	1330.45
926.616	1319.95
927.702	1310
928.788	1301.45
929.873	1292.93
930.958	1285.32
932.044	1279.74
933.128	1273.84
934.212	1266.22
935.296	1258.96
936.38	1255.08
937.463	1253.12
938.547	1252.78
939.63	1253.26
940.712	1253.74
941.795	1254.46
942.876	1255.06
943.958	1255.04
945.039	1255.76
946.121	1256.81
947.202	1256.77
948.282	1256.75
949.363	1256.64
950.443	1253.45
951.522	1249.82
952.602	1246.75
953.681	1243.51
954.76	1240.18
955.839	1237.48
956.917	1235.77
957.995	1232.32
959.073	1229.34
960.151	1227.29
961.228	1225.2
962.305	1223.35
963.381	1221.11
964.458	1217.64
965.534	1214.5
966.61	1210.83
967.685	1207.22
968.76	1204.58
969.836	1204.33
970.91	1203.19
971.984	1203.88
973.059	1206.91
974.133	1209.96
975.206	1213.13
976.279	1218.8
977.352	1224.03
978.425	1231.37
979.497	1238.07
980.57	1242.96
981.642	1247.21
982.714	1251.16
983.785	1254.14
984.856	1255.91
985.927	1256.49
986.997	1256.75
988.067	1255.24
989.137	1252.64
990.206	1249.49
991.276	1246.25
992.345	1241.75
993.413	1238.3
994.482	1235.92
995.55	1235.85
996.619	1236.13
997.686	1235.86
998.754	1231.92
999.821	1228.78
1000.89	1223.76
1001.95	1218.84
1003.02	1213.61
1004.09	1210.05
1005.15	1204.01
1006.22	1197.29
1007.28	1189.22
1008.35	1181.06
1009.41	1172.9
1010.48	1164.28
1011.54	1155.52
1012.6	1145.86
1013.67	1136.64
1014.73	1128.55
1015.79	1121.58
1016.86	1116.12
1017.92	1110.73
1018.98	1105.6
1020.04	1101.63
1021.1	1100.34
1022.16	1097.23
1023.23	1094.43
1024.29	1092.96
1025.35	1091.67
1026.41	1090.62
1027.47	1088.82
1028.53	1087.84
1029.58	1086.62
1030.64	1084.62
1031.7	1082.74
1032.76	1078.64
1033.82	1073.45
1034.88	1069.65
1035.93	1065.71
1036.99	1063.4
1038.05	1061.12
1039.11	1059.32
1040.16	1057.35
1041.22	1056.95
1042.27	1056.09
1043.33	1055.92
1044.38	1058.24
1045.44	1061.95
1046.49	1066.52
1047.55	1069.32
1048.6	1074.34
1049.66	1072.31
1050.71	1065.17
1051.76	1061.23
1052.82	1057.6
1053.87	1054.75
1054.92	1052.12
1055.97	1050.15
1057.03	1048.58
1058.08	1048.45
1059.13	1048.09
1060.18	1047.49
1061.23	1044.81
1062.28	1041.38
1063.33	1038.46
1064.38	1037.06
1065.43	1037.27
1066.48	1038.77
1067.53	1039.69
1068.58	1040.62
1069.63	1039.51
1070.68	1036.97
1071.72	1033.41
1072.77	1030.45
1073.82	1027.82
1074.87	1024.63
1075.91	1020.71
1076.96	1016.36
1078.01	1011.55
1079.05	1006.11
1080.1	999.837
1081.14	994.309
1082.19	990.215
1083.23	987.307
1084.28	985.456
1085.32	984.043
1086.37	983.259
1087.41	983.628
1088.46	983.318
1089.5	982.208
1090.54	980.943
1091.58	979.518
1092.63	979.198
1093.67	978.325
1094.71	976.646
1095.75	973.512
1096.79	970.42
1097.83	967.932
1098.88	969.205
1099.92	968.247
1100.96	967.606
1102	967.457
1103.04	968.552
1104.08	969.548
1105.11	972.423
1106.15	975.328
1107.19	978.271
1108.23	980.446
1109.27	982.173
1110.31	983.108
1111.34	983.152
1112.38	981.732
1113.42	980.725
1114.45	976.957
1115.49	971.569
1116.53	965.142
1117.56	960.363
1118.6	956.644
1119.63	951.581
1120.67	947.173
1121.7	943.626
1122.74	940.189
1123.77	937.261
1124.81	934.675
1125.84	932.809
1126.87	931.122
1127.91	930.786
1128.94	932.171
1129.97	934.967
1131	938.497
1132.04	944.637
1133.07	950.812
1134.1	958.039
1135.13	966.237
1136.16	974.053
1137.19	982.822
1138.22	995.25
1139.25	1001.59
1140.28	1008.3
1141.31	1012.54
1142.34	1014.64
1143.37	1015.62
1144.4	1014.26
1145.42	1013.47
1146.45	1010.15
1147.48	1009.48
1148.51	1008.56
1149.53	1009.48
1150.56	1009.44
1151.59	1019.64
1152.62	1031.5
1153.64	1043.29
1154.67	1066.59
1155.69	1074.25
1156.72	1078.27
1157.74	1080.13
1158.77	1073.48
1159.79	1047.9
1160.82	1027.32
1161.84	1008.16
1162.86	987.441
1163.89	967.858
1164.91	949.821
1165.93	937.435
1166.96	923.844
1167.98	913.614
1169	905.103
1170.02	901.747
1171.04	898.696
1172.06	901.335
1173.09	904.79
1174.11	909.005
1175.13	912.811
1176.15	917.527
1177.17	922.805
1178.18	928.904
1179.2	934.725
1180.22	938.883
1181.24	943.995
1182.26	948.169
1183.28	951.982
1184.3	954.105
1185.31	953.774
1186.33	951.329
1187.35	947.015
1188.37	940.949
1189.38	934.175
1190.4	927.264
1191.41	919.228
1192.43	911.391
1193.44	902.886
1194.46	894.533
1195.48	886.286
1196.49	877.378
1197.5	870.27
1198.52	865.136
1199.53	860.065
1200.54	854.935
1201.56	853.217
1202.57	851.639
1203.58	850.398
1204.6	849.582
1205.61	849.985
1206.62	851.798
1207.63	853.428
1208.64	855.415
1209.65	857.341
1210.66	859.129
1211.67	861.034
1212.68	863.041
1213.69	864.523
1214.7	867.668
1215.71	867.878
1216.72	867.737
1217.73	867.012
1218.74	865.585
1219.75	865.253
1220.76	862.449
1221.76	862.28
1222.77	862.303
1223.78	865.155
1224.79	865.774
1225.79	865.767
1226.8	864.698
1227.8	859.595
1228.81	853.633
1229.82	846.567
1230.82	839.964
1231.83	833.947
1232.83	826.783
1233.84	818.567
1234.84	810.812
1235.84	802.681
1236.85	794.869
1237.85	786.445
1238.85	780.48
1239.86	775.495
1240.86	772.291
1241.86	769.102
1242.86	765.217
1243.86	763.262
1244.87	759.773
1245.87	747.704
1246.87	754.52
1247.87	761.196
1248.87	764.687
1249.87	759.156
1250.87	754.84
1251.87	750.136
1252.87	746.638
1253.87	743.621
1254.86	743.202
1255.86	742.483
1256.86	745.477
1257.86	746.222
1258.86	747.885
1259.85	749.503
1260.85	751.662
1261.85	753.976
1262.84	756.48
1263.84	757.177
1264.84	757.071
1265.83	754.903
1266.83	753.466
1267.82	749.619
1268.82	744.138
1269.81	738.999
1270.81	733.447
1271.8	729.003
1272.8	724.388
1273.79	721.72
1274.78	721.153
1275.77	722.926
1276.77	726.66
1277.76	730.438
1278.75	735.329
1279.74	739.804
1280.74	745.207
1281.73	749.595
1282.72	752.617
1283.71	754.391
1284.7	756.016
1285.69	757.223
1286.68	756.513
1287.67	753.863
1288.66	749.755
1289.65	744.331
1290.64	738.818
1291.63	732.821
1292.61	725.589
1293.6	720.124
1294.59	716.374
1295.58	712.824
1296.56	708.959
1297.55	706.117
1298.54	703.611
1299.52	701.78
1300.51	701.008
1301.5	699.639
1302.48	699.386
1303.47	698.968
1304.45	698.8
1305.44	698.231
1306.42	697.514
1307.41	695.569
1308.39	693.552
1309.37	690.636
1310.36	687.29
1311.34	684.421
1312.32	682.552
1313.31	682.394
1314.29	682.118
1315.27	680.346
1316.25	681.617
1317.23	681.507
1318.22	686.169
1319.2	691.074
1320.18	700.718
1321.16	711.687
1322.14	727.633
1323.12	745.646
1324.1	760.641
1325.08	773.428
1326.06	781.558
1327.04	784.735
1328.01	782.48
1328.99	776.045
1329.97	754.201
1330.95	742.224
1331.93	729.894
1332.9	717.017
1333.88	704.704
1334.86	691.861
1335.83	679.996
1336.81	668.367
1337.79	659.938
1338.76	653.673
1339.74	649.993
1340.71	649.851
1341.69	649.683
1342.66	648.086
1343.64	649.083
1344.61	650.435
1345.58	650.55
1346.56	649.909
1347.53	649.055
1348.5	649.182
1349.48	649.001
1350.45	648.636
1351.42	648.886
1352.39	648.544
1353.36	647.733
1354.34	646.232
1355.31	645.8
1356.28	643.78
1357.25	640.921
1358.22	638.178
1359.19	634.822
1360.16	631.029
1361.13	626.219
1362.1	622.034
1363.07	617.92
1364.03	614.829
1365	611.699
1365.97	608.808
1366.94	606.995
1367.91	605.07
1368.87	603.715
1369.84	603.288
1370.81	602.85
1371.77	601.438
1372.74	600.07
1373.71	598.394
1374.67	596.742
1375.64	594.837
1376.6	595.168
1377.57	596.825
1378.53	597.092
1379.5	596.85
1380.46	597.51
1381.42	596.289
1382.39	597.293
1383.35	597.741
1384.31	599.419
1385.28	601.853
1386.24	603.172
1387.2	605.003
1388.16	605.689
1389.13	604.875
1390.09	602.679
1391.05	600.279
1392.01	596.397
1392.97	593.802
1393.93	590.925
1394.89	588.175
1395.85	585.394
1396.81	582.825
1397.77	579.088
1398.73	575.724
1399.69	573.131
1400.64	570.357
1401.6	568.172
1402.56	566.115
1403.52	564.268
1404.48	562.731
1405.43	560.851
1406.39	558.642
1407.35	556.207
1408.3	553.443
1409.26	551.877
1410.22	550.436
1411.17	550.664
1412.13	551.965
1413.08	553.352
1414.04	555.719
1414.99	552.957
1415.94	554.203
1416.9	554.594
1417.85	556.997
1418.81	559.581
1419.76	562.234
1420.71	564.263
1421.66	566.19
1422.62	567.502
1423.57	568.888
1424.52	569.928
1425.47	570.508
1426.42	571.086
1427.37	572.7
1428.33	573.687
1429.28	574.053
1430.23	572.814
1431.18	572.452
1432.13	572.302
1433.07	572.477
1434.02	571.974
1434.97	571.723
1435.92	571.314
1436.87	572.027
1437.82	572.056
1438.77	571.846
1439.71	571.096
1440.66	570.692
1441.61	569.31
1442.55	567.58
1443.5	564.56
1444.45	563.082
1445.39	562.147
1446.34	561.348
1447.28	558.969
1448.23	555.997
1449.18	553.613
1450.12	551.128
1451.06	548.46
1452.01	545.651
1452.95	541.677
1453.9	538.423
1454.84	535.733
1455.78	533.527
1456.72	531.066
1457.67	529.894
1458.61	528.385
1459.55	527.515
1460.49	526.313
1461.43	525.082
1462.38	524.396
1463.32	523.799
1464.26	523.073
1465.2	521.359
1466.14	518.534
1467.08	515.848
1468.02	514.153
1468.96	512.292
1469.9	510.804
1470.83	510.243
1471.77	509.508
1472.71	509.787
1473.65	510.008
1474.59	510.737
1475.53	511.834
1476.46	513.504
1477.4	514.672
1478.34	516.117
1479.27	516.755
1480.21	516.743
1481.14	516.815
1482.08	516.483
1483.02	515.543
1483.95	515.169
1484.89	514.037
1485.82	514.038
1486.75	514.42
1487.69	513.639
1488.62	512.946
1489.56	514.392
1490.49	514.109
1491.42	513.874
1492.35	512.651
1493.29	511.358
1494.22	509.688
1495.15	508.014
1496.08	505.894
1497.01	504.152
1497.95	502.011
1498.88	499.741
1499.81	497.235
1500.74	495.617
1501.67	495.113
1502.6	495.171
1503.53	495.593
1504.46	497.42
1505.39	499.593
1506.31	502.907
1507.24	506.278
1508.17	510.858
1509.1	515.949
1510.03	522.261
1510.95	528.562
1511.88	537.321
1512.81	545.823
1513.74	555.756
1514.66	563.509
1515.59	574.526
1516.51	586.492
1517.44	600.076
1518.37	613.093
1519.29	626.556
1520.22	639.758
1521.14	652.709
1522.06	664.865
1522.99	673.261
1523.91	679.181
1524.84	682.461
1525.76	684.022
1526.68	681.948
1527.61	679.221
1528.53	672.906
1529.45	663.729
1530.37	651.694
1531.29	642.848
1532.21	632.814
1533.14	622.008
1534.06	611.622
1534.98	600.979
1535.9	592.916
1536.82	582.369
1537.74	570.655
1538.66	557.935
1539.58	545.744
1540.5	536.161
1541.42	527.292
1542.33	519.327
1543.25	512.094
1544.17	508.557
1545.09	504.689
1546.01	502.49
1546.92	501.004
1547.84	500.98
1548.76	501.513
1549.67	504.23
1550.59	505.692
1551.51	506.704
1552.42	506.59
1553.34	505.362
1554.25	503.176
1555.17	499.884
1556.08	494.873
1557	489.549
1557.91	483.662
1558.82	476.952
1559.74	471.838
1560.65	466.581
1561.56	461.968
1562.48	458.097
1563.39	453.821
1564.3	450.057
1565.21	446.423
1566.13	443.794
1567.04	440.816
1567.95	437.987
1568.86	435.779
1569.77	433.861
1570.68	432.522
1571.59	431.291
1572.5	430.571
1573.41	430.162
1574.32	430.059
1575.23	429.853
1576.14	429.251
1577.05	428.912
1577.95	428.606
1578.86	428.491
1579.77	428.575
1580.68	429.256
1581.59	430.155
1582.49	432.242
1583.4	433.369
1584.31	434.429
1585.21	434.384
1586.12	434.483
1587.02	433.541
1587.93	432.26
1588.84	430.548
1589.74	429.246
1590.65	428.939
1591.55	428.643
1592.45	430.521
1593.36	433.083
1594.26	440.834
1595.17	441.023
1596.07	441.065
1596.97	439.793
1597.87	437.435
1598.78	436.691
1599.68	437.867
1600.58	438.309
1601.48	439.558
1602.38	441.405
1603.29	443.354
1604.19	444.718
1605.09	445.056
1605.99	445.17
1606.89	445.256
1607.79	445.264
1608.69	444.994
1609.59	445.339
1610.49	445.534
1611.38	443.814
1612.28	443.525
1613.18	442.351
1614.08	440.422
1614.98	438.065
1615.87	435.154
1616.77	432.376
1617.67	429.166
1618.57	425.937
1619.46	422.612
1620.36	419.4
1621.25	417.046
1622.15	414.565
1623.05	411.148
1623.94	408.821
1624.84	408.49
1625.73	409.439
1626.62	411.202
1627.52	413.228
1628.41	414.915
1629.31	415.739
1630.2	416.087
1631.09	415.844
1631.99	415.589
1632.87	415.128
1633.8	414.47
1634.73	411.937
1635.65	409.581
1636.58	407.262
1637.51	404.792
1638.44	402.987
1639.37	400.565
1640.29	397.666
1641.22	394.982
1642.15	393.089
1643.08	392.395
1644	391.543
1644.93	392.021
1645.85	392.306
1646.78	392.724
1647.71	393.792
1648.63	395.468
1649.56	397.276
1650.48	397.979
1651.41	398.259
1652.33	397.942
1653.26	397.429
1654.18	396.984
1655.1	396.319
1656.03	393.837
1656.95	391.792
1657.87	389.362
1658.8	387.603
1659.72	385.799
1660.64	385.595
1661.56	384.643
1662.49	384.137
1663.41	384.283
1664.33	383.993
1665.25	384.798
1666.17	385.122
1667.09	385.317
1668.02	385.275
1668.94	385.217
1669.86	385.221
1670.78	385.392
1671.7	385.888
1672.62	386.575
1673.53	385.426
1674.45	380.567
1675.37	375.705
1676.29	372.495
1677.21	371.599
1678.13	373.569
1679.05	378.538
1679.96	379.957
1680.88	375.614
1681.8	374.456
1682.72	372.988
1683.63	371.776
1684.55	370.887
1685.47	369.877
1686.38	369.087
1687.3	369.23
1688.21	369.257
1689.13	368.312
1690.05	367.123
1690.96	366.387
1691.87	366.101
1692.79	366.111
1693.7	365.817
1694.62	365.307
1695.53	365.427
1696.45	365.071
1697.36	364.818
1698.27	364.209
1699.19	363.043
1700.1	361.566
1701.01	360.432
1701.92	358.949
1702.84	357.84
1703.75	355.553
1704.66	353.452
1705.57	351.595
1706.48	349.985
1707.39	348.513
1708.3	347.302
1709.21	346.253
1710.12	345.425
1711.03	344.733
1711.95	344.289
1712.85	344.14
1713.76	344.235
1714.67	344.487
1715.58	344.927
1716.49	345.554
1717.4	346.136
1718.31	346.015
1719.22	346.252
1720.12	345.851
1721.03	345.645
1721.94	345.79
1722.85	345.999
1723.75	345.895
1724.66	345.236
1725.57	342.642
1726.47	340.702
1727.38	339.128
1728.28	337.843
1729.19	336.991
1730.1	336.394
1731	336.25
1731.91	336.45
1732.81	337.499
1733.71	335.851
1734.62	334.47
1735.52	333.649
1736.43	333.023
1737.33	332.642
1738.23	332.189
1739.14	331.376
1740.04	330.836
1740.94	330.171
1741.85	328.953
1742.75	328.408
1743.65	329.386
1744.55	328.778
1745.45	328.287
1746.35	328.108
1747.26	327.342
1748.16	326.796
1749.06	325.582
1749.96	326.033
1750.86	326.708
1751.76	327.225
1752.66	328.057
1753.56	327.638
1754.46	326.396
1755.36	325.911
1756.25	325.891
1757.15	325.977
1758.05	324.785
1758.95	323.464
1759.85	321.743
1760.75	319.518
1761.64	317.158
1762.54	315.032
1763.44	312.51
1764.33	311.087
1765.23	309.934
1766.13	308.937
1767.02	308.404
1767.92	309.097
1768.82	309.833
1769.71	309.856
1770.61	310.059
1771.5	309.863
1772.4	310.71
1773.29	311.298
1774.19	311.123
1775.08	310.577
1775.97	309.611
1776.87	309.149
1777.76	308.723
1778.65	308.676
1779.55	309.204
1780.44	309.193
1781.33	302.914
1782.23	302.025
1783.12	306.579
1784.01	305.435
1784.9	304.794
1785.79	304.569
1786.68	299.717
1787.58	297.958
1788.47	298.952
1789.36	300.324
1790.25	298.952
1791.14	297.353
1792.03	295.619
1792.92	294.35
1793.81	293.726
1794.7	293.79
1795.58	294.1
1796.47	294.784
1797.36	296.509
1798.25	297.247
1799.14	298.085
