Acq. time (s)=	15
Accumulations=	2
Range (cm-¹)=	600...1800
Windows=	2
Autofocus=	Off
AutoExposure=	Off
Spike filter=	Multiple accum.
Delay time (s)=	1
Binning=	1
Readout mode=	Signal
DeNoise=	Standard
ICS correction=	Off
Dark correction=	Off
Inst. Process=	Off
Instrument=	XploRA
Detector=	Syncerity
Objective=	x20LWD
Grating=	1200 gr/mm
Filter=	25%
Laser (nm)=	785 
Slit (µm)=	100 
Hole (µm)=	300 
Laser pol=	None
Raman pol=	None
Output=	Camera
StageXY=	Marzhauser
StageZ=	
X (µm)=	-2274.8
Y (µm)=	-1568.5
Project=	
Sample=	
Site=	
Title=	CLsoP1
Remark=	
Date=	06.04.2022 10:28
Acquired=	06.04.2022 10:28:04
600.731	1078.97
601.9	1087.85
603.069	1097
604.238	1106.29
605.406	1115.69
606.575	1125.31
607.743	1134.63
608.91	1143.78
610.078	1152.86
611.245	1161.51
612.411	1169.99
613.579	1177.86
614.745	1185.14
615.91	1191.28
617.076	1196.09
618.241	1199.94
619.407	1204.2
620.571	1208.56
621.735	1212.74
622.9	1217.07
624.063	1221.14
625.227	1225.53
626.39	1229.82
627.553	1233.84
628.716	1237.52
629.879	1240.91
631.041	1243.63
632.203	1245.75
633.364	1247.53
634.526	1248.69
635.686	1249.29
636.847	1249.42
638.007	1249.2
639.167	1248.26
640.327	1246.57
641.486	1244.5
642.645	1242.4
643.805	1240.41
644.963	1239.55
646.122	1239.2
647.28	1239.39
648.438	1240.55
649.594	1242.12
650.752	1243.77
651.909	1245.66
653.065	1247.32
654.221	1248.51
655.377	1249.38
656.533	1250.76
657.688	1252.22
658.843	1253.57
659.998	1255.17
661.153	1256.2
662.307	1256.16
663.461	1256.08
664.615	1256.23
665.768	1256.56
666.921	1257.22
668.074	1259.33
669.226	1261.84
670.379	1264.81
671.53	1268.21
672.682	1271.87
673.833	1275.86
674.984	1279.75
676.135	1283.2
677.285	1286.43
678.436	1289.47
679.586	1291.55
680.735	1292.71
681.884	1293.3
683.033	1293.47
684.182	1293.35
685.33	1293
686.478	1292.48
687.626	1292.02
688.774	1291.42
689.921	1290.61
691.068	1289.81
692.214	1288.64
693.361	1287.38
694.507	1285.48
695.652	1283.26
696.798	1280.83
697.943	1278.63
699.088	1276.51
700.233	1275
701.377	1273.83
702.521	1272.55
703.665	1271.41
704.808	1270.26
705.951	1269.02
707.094	1267.59
708.236	1266.46
709.379	1265.07
710.522	1264.68
711.663	1265.03
712.804	1264.56
713.946	1260.76
715.086	1257.29
716.227	1254.14
717.367	1251
718.507	1247.95
719.647	1245.38
720.786	1243.76
721.925	1242.87
723.064	1240.57
724.202	1237.57
725.341	1235.41
726.479	1233.8
727.616	1233.16
728.753	1233.04
729.89	1232.34
731.027	1231.59
732.163	1234.68
733.3	1239.18
734.436	1244.76
735.572	1250.55
736.707	1256.42
737.842	1264.37
738.977	1272.27
740.111	1278.3
741.246	1282.7
742.379	1281.63
743.513	1280.53
744.646	1279.33
745.779	1278.48
746.911	1274.94
748.044	1267.51
749.176	1253.66
750.308	1245.27
751.44	1237.31
752.571	1229.87
753.702	1223.2
754.833	1217.58
755.963	1213.48
757.093	1210.57
758.223	1205.52
759.353	1200.58
760.481	1196.11
761.61	1192.43
762.74	1189.41
763.867	1186.52
764.996	1184.02
766.124	1181.54
767.251	1178.53
768.378	1175.2
769.505	1171.4
770.631	1167.3
771.758	1162.85
772.884	1158.44
774.01	1153.87
775.136	1149.13
776.261	1144.59
777.386	1140.19
778.51	1136.01
779.634	1132.16
780.758	1129.01
781.882	1126.92
783.006	1125.3
784.129	1123.76
785.252	1122.13
786.375	1118.68
787.497	1115.13
788.619	1111.84
789.741	1109.26
790.862	1106.83
791.983	1104.47
793.104	1102.11
794.225	1099.82
795.345	1097.61
796.465	1094.85
797.585	1091.71
798.704	1088.77
799.823	1085.98
800.943	1083.31
802.061	1081.23
803.179	1079.39
804.297	1077.87
805.415	1076.75
806.532	1075.91
807.649	1075.2
808.766	1074.75
809.883	1074.41
810.999	1074.08
812.115	1072.87
813.231	1071.14
814.346	1069.56
815.461	1069.76
816.577	1070.46
817.691	1071.19
818.805	1072.15
819.919	1072.29
821.033	1071.74
822.146	1070.62
823.259	1069.34
824.372	1068.01
825.485	1066.94
826.597	1065.68
827.709	1064.33
828.82	1062.89
829.932	1061.45
831.043	1060.04
832.154	1058.8
833.265	1057.15
834.375	1055.33
835.484	1053.57
836.594	1051.9
837.704	1050.14
838.813	1049.59
839.922	1049.51
841.03	1049.3
842.138	1048.87
843.246	1047.74
844.354	1046.49
845.461	1044.71
846.568	1042.36
847.675	1039.78
848.782	1036.37
849.888	1032.65
850.994	1028.62
852.1	1024.76
853.205	1020.93
854.31	1017.5
855.415	1013.93
856.52	1010.72
857.624	1007.93
858.727	1005.04
859.831	1002.2
860.935	999.465
862.038	996.834
863.141	994.286
864.243	991.741
865.345	989.211
866.448	986.823
867.549	984.499
868.651	982.385
869.751	980.203
870.852	977.943
871.953	975.508
873.053	973.172
874.153	970.786
875.253	968.537
876.352	966.427
877.451	964.511
878.55	963.321
879.648	962.383
880.747	961.869
881.845	962.041
882.943	962.97
884.039	964.426
885.137	966.435
886.233	968.721
887.33	969.61
888.426	968.534
889.522	967.449
890.618	966.455
891.713	965.459
892.808	964.59
893.903	963.696
894.998	963.003
896.092	962.377
897.186	961.993
898.28	961.77
899.374	961.825
900.467	962.483
901.559	962.737
902.652	963.711
903.744	964.504
904.836	965.193
905.927	965.485
907.019	965.264
908.111	964.836
909.201	963.908
910.291	962.846
911.382	961.677
912.472	960.25
913.562	958.655
914.651	956.737
915.741	954.73
916.829	952.781
917.918	950.196
919.006	947.218
920.094	943.182
921.181	938.393
922.269	926.703
923.356	920.703
924.443	915.369
925.53	910.476
926.616	905.855
927.702	901.856
928.788	898.318
929.873	895.067
930.958	892.744
932.044	891.316
933.128	891.06
934.212	891.983
935.296	893.033
936.38	893.635
937.463	894.632
938.547	892.518
939.63	890.536
940.712	888.567
941.795	886.631
942.876	884.6
943.958	880.925
945.039	877.426
946.121	874.065
947.202	871.575
948.282	869.84
949.363	868.494
950.443	867.479
951.522	866.841
952.602	866.475
953.681	866.107
954.76	864.746
955.839	864.006
956.917	864.624
957.995	864.18
959.073	862.593
960.151	858.91
961.228	855.013
962.305	851.161
963.381	847.476
964.458	844.597
965.534	842.065
966.61	840.012
967.685	838.39
968.76	837.214
969.836	836.756
970.91	836.917
971.984	837.901
973.059	839.333
974.133	841.964
975.206	844.809
976.279	849.083
977.352	853.428
978.425	857.519
979.497	861.208
980.57	863.705
981.642	865.978
982.714	867.301
983.785	868.237
984.856	868.638
985.927	868.31
986.997	867.539
988.067	866.218
989.137	864.048
990.206	861.316
991.276	858.86
992.345	856.316
993.413	855.325
994.482	855.112
995.55	855.333
996.619	855.656
997.686	855.853
998.754	855.652
999.821	855.165
1000.89	854.373
1001.95	851.437
1003.02	848.162
1004.09	845.769
1005.15	843.799
1006.22	840.489
1007.28	835.983
1008.35	830.321
1009.41	823.999
1010.48	817.263
1011.54	810.109
1012.6	803.02
1013.67	796.538
1014.73	790.424
1015.79	784.804
1016.86	779.815
1017.92	775.434
1018.98	771.906
1020.04	769.035
1021.1	766.779
1022.16	764.861
1023.23	763.187
1024.29	761.633
1025.35	759.784
1026.41	758.073
1027.47	756.074
1028.53	753.882
1029.58	751.503
1030.64	749.071
1031.7	746.747
1032.76	744.736
1033.82	743.244
1034.88	742.655
1035.93	742.954
1036.99	743.655
1038.05	745.105
1039.11	747.045
1040.16	749.313
1041.22	751.678
1042.27	754
1043.33	756.03
1044.38	757.687
1045.44	758.736
1046.49	758.172
1047.55	755.342
1048.6	752.378
1049.66	749.556
1050.71	747.067
1051.76	745.262
1052.82	743.314
1053.87	741.521
1054.92	740.23
1055.97	737.787
1057.03	735.894
1058.08	734.556
1059.13	733.702
1060.18	733.571
1061.23	733.663
1062.28	733.831
1063.33	734.016
1064.38	733.991
1065.43	733.758
1066.48	733.288
1067.53	732.602
1068.58	731.526
1069.63	730.302
1070.68	728.949
1071.72	727.51
1072.77	726.041
1073.82	724.347
1074.87	723.003
1075.91	722.095
1076.96	721.04
1078.01	719.886
1079.05	718.928
1080.1	716.929
1081.14	713.729
1082.19	710.566
1083.23	707.209
1084.28	703.961
1085.32	701.114
1086.37	699.499
1087.41	698.136
1088.46	697.229
1089.5	696.521
1090.54	693.047
1091.58	690.762
1092.63	690.08
1093.67	690.499
1094.71	691.205
1095.75	692.615
1096.79	694.215
1097.83	694.325
1098.88	694.23
1099.92	693.706
1100.96	692.732
1102	691.862
1103.04	690.967
1104.08	690.431
1105.11	690.405
1106.15	690.512
1107.19	690.471
1108.23	690.286
1109.27	689.869
1110.31	689.206
1111.34	688.358
1112.38	687.327
1113.42	686.031
1114.45	683.564
1115.49	681.489
1116.53	679.254
1117.56	677.17
1118.6	675.007
1119.63	672.647
1120.67	668.484
1121.7	664.849
1122.74	661.9
1123.77	659.724
1124.81	658.353
1125.84	657.823
1126.87	658.183
1127.91	659.409
1128.94	661.496
1129.97	663.309
1131	664.294
1132.04	665.838
1133.07	668.061
1134.1	670.653
1135.13	673.901
1136.16	677.625
1137.19	682.293
1138.22	687.292
1139.25	692.547
1140.28	697.68
1141.31	702.922
1142.34	707.2
1143.37	711.143
1144.4	714.19
1145.42	716.913
1146.45	719.597
1147.48	722.386
1148.51	725.322
1149.53	729.612
1150.56	735.312
1151.59	740.359
1152.62	744.883
1153.64	748.455
1154.67	750.963
1155.69	752.806
1156.72	753.176
1157.74	748.914
1158.77	740.056
1159.79	728.364
1160.82	716.045
1161.84	701.63
1162.86	687.252
1163.89	673.419
1164.91	660.208
1165.93	647.394
1166.96	646.922
1167.98	646.178
1169	644.692
1170.02	644.63
1171.04	645.404
1172.06	646.477
1173.09	648.532
1174.11	651.2
1175.13	654.21
1176.15	657.345
1177.17	660.674
1178.18	663.536
1179.2	666.2
1180.22	668.26
1181.24	669.458
1182.26	670.31
1183.28	670.307
1184.3	669.627
1185.31	668.343
1186.33	666.408
1187.35	663.984
1188.37	660.895
1189.38	657.013
1190.4	652.689
1191.41	647.381
1192.43	641.886
1193.44	636.323
1194.46	630.411
1195.48	624.703
1196.49	619.81
1197.5	615.76
1198.52	612.332
1199.53	609.742
1200.54	608.057
1201.56	606.965
1202.57	606.357
1203.58	606.073
1204.6	607.108
1205.61	608.883
1206.62	610.471
1207.63	611.615
1208.64	613.069
1209.65	614.067
1210.66	615.453
1211.67	616.773
1212.68	617.887
1213.69	618.599
1214.7	617.892
1215.71	616.608
1216.72	615.058
1217.73	614.526
1218.74	613.47
1219.75	612.107
1220.76	610.837
1221.76	609.435
1222.77	608.273
1223.78	607.019
1224.79	605.736
1225.79	604.38
1226.8	602.945
1227.8	601.455
1228.81	599.834
1229.82	594.953
1230.82	590.46
1231.83	586.34
1232.83	582.423
1233.84	578.757
1234.84	575.311
1235.84	572.112
1236.85	569.13
1237.85	566.389
1238.85	563.857
1239.86	561.521
1240.86	559.428
1241.86	557.624
1242.86	556.01
1243.86	554.552
1244.87	552.898
1245.87	550.084
1246.87	547.143
1247.87	544.389
1248.87	541.809
1249.87	539.586
1250.87	538.01
1251.87	536.837
1252.87	536.5
1253.87	536.583
1254.86	537.067
1255.86	537.93
1256.86	539.099
1257.86	540.487
1258.86	541.996
1259.85	543.626
1260.85	543.064
1261.85	541.561
1262.84	539.801
1263.84	537.375
1264.84	534.672
1265.83	532.003
1266.83	530.026
1267.82	530.067
1268.82	529.4
1269.81	528.345
1270.81	524.715
1271.8	523.517
1272.8	526.218
1273.79	526.201
1274.78	526.382
1275.77	526.857
1276.77	528.165
1277.76	529.687
1278.75	531.621
1279.74	533.895
1280.74	536.229
1281.73	538.531
1282.72	540.929
1283.71	542.803
1284.7	544.183
1285.69	544.776
1286.68	543.858
1287.67	541.666
1288.66	538.83
1289.65	535.262
1290.64	531.343
1291.63	527.167
1292.61	522.534
1293.6	517.915
1294.59	513.768
1295.58	510.266
1296.56	507.663
1297.55	506.385
1298.54	505.991
1299.52	506.464
1300.51	506.191
1301.5	507.078
1302.48	507.984
1303.47	508.529
1304.45	508.716
1305.44	508.577
1306.42	508.001
1307.41	507.358
1308.39	506.428
1309.37	505.097
1310.36	503.356
1311.34	501.274
1312.32	499.675
1313.31	499.682
1314.29	498.608
1315.27	499.293
1316.25	502.059
1317.23	506.049
1318.22	510.998
1319.2	517.11
1320.18	523.739
1321.16	528.108
1322.14	532.29
1323.12	537.185
1324.1	541.64
1325.08	544.004
1326.06	543.422
1327.04	541.362
1328.01	537.962
1328.99	533.328
1329.97	527.651
1330.95	521.802
1331.93	514.633
1332.9	505.661
1333.88	498.401
1334.86	491.345
1335.83	485.519
1336.81	480.935
1337.79	477.645
1338.76	475.434
1339.74	473.549
1340.71	472.074
1341.69	470.775
1342.66	470.196
1343.64	470.285
1344.61	470.617
1345.58	471.063
1346.56	471.524
1347.53	472.011
1348.5	471.669
1349.48	470.841
1350.45	470.078
1351.42	469.366
1352.39	468.818
1353.36	468.25
1354.34	467.569
1355.31	466.77
1356.28	465.837
1357.25	462.889
1358.22	459.894
1359.19	456.954
1360.16	454.341
1361.13	452.354
1362.1	450.648
1363.07	449.211
1364.03	448.055
1365	447.342
1365.97	445.86
1366.94	444.582
1367.91	443.368
1368.87	442.803
1369.84	442.407
1370.81	442.244
1371.77	442.237
1372.74	442.357
1373.71	442.574
1374.67	442.355
1375.64	442.361
1376.6	442.039
1377.57	440.412
1378.53	439.015
1379.5	437.943
1380.46	437.338
1381.42	437.311
1382.39	437.826
1383.35	438.876
1384.31	440.343
1385.28	442.025
1386.24	440.961
1387.2	439.773
1388.16	438.097
1389.13	435.955
1390.09	433.729
1391.05	431.554
1392.01	429.49
1392.97	427.549
1393.93	426.881
1394.89	426.379
1395.85	426.596
1396.81	427.095
1397.77	427.736
1398.73	428.299
1399.69	424.371
1400.64	420.95
1401.6	417.89
1402.56	415.32
1403.52	413.203
1404.48	411.603
1405.43	409.319
1406.39	407.152
1407.35	405.255
1408.3	403.637
1409.26	402.334
1410.22	401.401
1411.17	400.732
1412.13	400.437
1413.08	400.513
1414.04	401.092
1414.99	402.162
1415.94	403.694
1416.9	405.336
1417.85	407.047
1418.81	408.449
1419.76	409.669
1420.71	410.641
1421.66	410.931
1422.62	409.588
1423.57	408.472
1424.52	407.61
1425.47	407.293
1426.42	407.545
1427.37	408.526
1428.33	409.944
1429.28	411.728
1430.23	413.2
1431.18	415.092
1432.13	417.308
1433.07	419.756
1434.02	422.162
1434.97	424.514
1435.92	426.67
1436.87	428.323
1437.82	429.307
1438.77	429.007
1439.71	427.827
1440.66	425.707
1441.61	422.674
1442.55	418.13
1443.5	413.715
1444.45	409.552
1445.39	405.921
1446.34	403.245
1447.28	401.216
1448.23	399.884
1449.18	398.945
1450.12	398.813
1451.06	398.909
1452.01	398.567
1452.95	397.267
1453.9	396.009
1454.84	394.779
1455.78	393.51
1456.72	392.329
1457.67	390.618
1458.61	388.379
1459.55	386.291
1460.49	384.355
1461.43	382.593
1462.38	381.135
1463.32	380.864
1464.26	380.577
1465.2	380.758
1466.14	380.709
1467.08	379.585
1468.02	377.21
1468.96	374.529
1469.9	372.441
1470.83	370.186
1471.77	370.182
1472.71	372.096
1473.65	373.792
1474.59	375.448
1475.53	376.819
1476.46	377.905
1477.4	378.558
1478.34	378.492
1479.27	376.946
1480.21	374.872
1481.14	372.936
1482.08	371.993
1483.02	372.618
1483.95	373.518
1484.89	374.687
1485.82	375.447
1486.75	375.79
1487.69	376.543
1488.62	377.157
1489.56	377.614
1490.49	377.912
1491.42	377.992
1492.35	376.104
1493.29	373.416
1494.22	371.131
1495.15	368.687
1496.08	366.098
1497.01	363.719
1497.95	361.421
1498.88	359.847
1499.81	358.805
1500.74	358.426
1501.67	358.941
1502.6	359.914
1503.53	361.449
1504.46	363.554
1505.39	366.189
1506.31	369.358
1507.24	372.928
1508.17	377.239
1509.1	382.187
1510.03	387.785
1510.95	393.129
1511.88	396.701
1512.81	400.659
1513.74	406.276
1514.66	412.63
1515.59	420.209
1516.51	428.553
1517.44	437.222
1518.37	446.231
1519.29	454.238
1520.22	462.383
1521.14	470.084
1522.06	476.683
1522.99	481.685
1523.91	484.907
1524.84	485.85
1525.76	481.565
1526.68	479.372
1527.61	472.219
1528.53	467.989
1529.45	463.107
1530.37	457.64
1531.29	451.838
1532.21	445.24
1533.14	437.808
1534.06	427.63
1534.98	417.349
1535.9	406.961
1536.82	398.041
1537.74	390.741
1538.66	387.347
1539.58	382.334
1540.5	378.066
1541.42	371.056
1542.33	366.558
1543.25	363.703
1544.17	361.948
1545.09	361.194
1546.01	361.355
1546.92	362.489
1547.84	365.256
1548.76	362.387
1549.67	359.064
1550.59	355.719
1551.51	352.402
1552.42	349.552
1553.34	347.305
1554.25	345.325
1555.17	343.638
1556.08	342.361
1557	341.555
1557.91	339.766
1558.82	336.325
1559.74	333.455
1560.65	330.458
1561.56	327.814
1562.48	325.532
1563.39	323.614
1564.3	322.053
1565.21	321.074
1566.13	320.329
1567.04	319.956
1567.95	319.961
1568.86	318.421
1569.77	317.029
1570.68	316.198
1571.59	315.632
1572.5	315.565
1573.41	315.563
1574.32	315.393
1575.23	314.967
1576.14	314.261
1577.05	313.359
1577.95	312.055
1578.86	311.121
1579.77	310.566
1580.68	309.735
1581.59	308.584
1582.49	307.45
1583.4	306.511
1584.31	305.709
1585.21	305.123
1586.12	304.745
1587.02	304.593
1587.93	304.685
1588.84	305.017
1589.74	305.587
1590.65	306.319
1591.55	307.125
1592.45	308.041
1593.36	309.052
1594.26	310.171
1595.17	311.338
1596.07	312.554
1596.97	314.027
1597.87	315.814
1598.78	317.484
1599.68	319.141
1600.58	320.575
1601.48	321.892
1602.38	323.151
1603.29	323.752
1604.19	323.854
1605.09	322.972
1605.99	321.487
1606.89	320.237
1607.79	319.264
1608.69	318.915
1609.59	318.76
1610.49	318.701
1611.38	318.562
1612.28	318.3
1613.18	317.258
1614.08	316.385
1614.98	315.812
1615.87	313.507
1616.77	311.101
1617.67	308.825
1618.57	306.757
1619.46	304.35
1620.36	301.358
1621.25	299.488
1622.15	298.427
1623.05	297.862
1623.94	297.45
1624.84	296.85
1625.73	296.124
1626.62	295.331
1627.52	294.755
1628.41	294.398
1629.31	294.338
1630.2	294.353
1631.09	294.464
1631.99	294.458
1632.87	294.242
1633.8	293.846
1634.73	293.362
1635.65	292.771
1636.58	292.541
1637.51	292.4
1638.44	292.16
1639.37	291.857
1640.29	291.396
1641.22	290.514
1642.15	289.365
1643.08	288.304
1644	287.313
1644.93	286.508
1645.85	286.689
1646.78	286.885
1647.71	286.815
1648.63	286.471
1649.56	285.917
1650.48	285.256
1651.41	284.643
1652.33	284.017
1653.26	283.233
1654.18	282.372
1655.1	281.64
1656.03	281.104
1656.95	281.048
1657.87	280.971
1658.8	281.011
1659.72	281.075
1660.64	281.122
1661.56	281.118
1662.49	281.096
1663.41	280.699
1664.33	280.091
1665.25	279.885
1666.17	279.756
1667.09	279.877
1668.02	279.85
1668.94	279.632
1669.86	279.273
1670.78	278.834
1671.7	278.146
1672.62	277.371
1673.53	276.714
1674.45	276.984
1675.37	277.041
1676.29	276.853
1677.21	276.134
1678.13	275.229
1679.05	274.002
1679.96	272.764
1680.88	271.584
1681.8	270.494
1682.72	269.682
1683.63	269.035
1684.55	268.699
1685.47	268.62
1686.38	268.549
1687.3	268.393
1688.21	268.308
1689.13	267.609
1690.05	266.288
1690.96	265.034
1691.87	263.741
1692.79	262.425
1693.7	261.132
1694.62	260.038
1695.53	258.943
1696.45	257.972
1697.36	256.946
1698.27	255.911
1699.19	254.987
1700.1	254.269
1701.01	253.84
1701.92	254.493
1702.84	255.177
1703.75	255.478
1704.66	255.447
1705.57	255.496
1706.48	255.161
1707.39	254.062
1708.3	251.544
1709.21	249.57
1710.12	246.655
1711.03	245.322
1711.95	245.365
1712.85	249.86
1713.76	251.205
1714.67	251.936
1715.58	252.187
1716.49	251.921
1717.4	251.325
1718.31	250.286
1719.22	248.761
1720.12	247.086
1721.03	246.041
1721.94	245.652
1722.85	245.516
1723.75	244.746
1724.66	243.875
1725.57	243.103
1726.47	242.505
1727.38	242.278
1728.28	242.216
1729.19	242.46
1730.1	242.626
1731	242.457
1731.91	241.008
1732.81	239.458
1733.71	238.183
1734.62	236.943
1735.52	235.875
1736.43	234.921
1737.33	234.132
1738.23	233.516
1739.14	233.052
1740.04	232.826
1740.94	232.776
1741.85	233.025
1742.75	233.545
1743.65	234.42
1744.55	235.399
1745.45	236.762
1746.35	237.833
1747.26	237.664
1748.16	236.792
1749.06	234.814
1749.96	231.653
1750.86	232.565
1751.76	233.848
1752.66	235.029
1753.56	233.701
1754.46	232.804
1755.36	232.423
1756.25	232.488
1757.15	232.678
1758.05	231.558
1758.95	230.556
1759.85	230.47
1760.75	230.741
1761.64	230.903
1762.54	230.854
1763.44	230.794
1764.33	230.727
1765.23	230.698
1766.13	230.646
1767.02	230.647
1767.92	230.62
1768.82	230.713
1769.71	230.811
1770.61	230.935
1771.5	230.957
1772.4	230.935
1773.29	230.536
1774.19	229.288
1775.08	228.175
1775.97	227.245
1776.87	226.333
1777.76	225.314
1778.65	224.494
1779.55	223.824
1780.44	223.208
1781.33	222.761
1782.23	222.329
1783.12	221.962
1784.01	221.624
1784.9	221.335
1785.79	221.061
1786.68	220.816
1787.58	220.575
1788.47	220.343
1789.36	220.064
1790.25	219.836
1791.14	219.48
1792.03	219.175
1792.92	219.054
1793.81	218.758
1794.7	218.209
1795.58	216.148
1796.47	213.437
1797.36	209.984
1798.25	205.712
1799.14	200.648
