Acq. time (s)=	15
Accumulations=	2
Range (cm-¹)=	600...1800
Windows=	2
Autofocus=	Off
AutoExposure=	Off
Spike filter=	Multiple accum.
Delay time (s)=	1
Binning=	1
Readout mode=	Signal
DeNoise=	Standard
ICS correction=	Off
Dark correction=	Off
Inst. Process=	Off
Instrument=	XploRA
Detector=	Syncerity
Objective=	x20LWD
Grating=	1200 gr/mm
Filter=	25%
Laser (nm)=	785 
Slit (µm)=	100 
Hole (µm)=	300 
Laser pol=	None
Raman pol=	None
Output=	Camera
StageXY=	Marzhauser
StageZ=	
X (µm)=	-11303.7
Y (µm)=	4902.1
Project=	
Sample=	
Site=	
Title=	T1
Remark=	
Date=	27.10.2021 15:30
Operator=	
Power=	
Acquired=	27.10.2021 15:30:40
600.089	711.591
601.257	719.964
602.426	724.951
603.594	732.222
604.763	737.934
605.93	742.235
607.098	744.932
608.264	747.098
609.431	748.943
610.598	750.956
611.764	753.154
612.93	755.741
614.096	757.235
615.261	758.024
616.426	758.766
617.591	759.734
618.756	761.379
619.92	763.414
621.084	765.534
622.247	766.957
623.411	769
624.574	772.298
625.736	775.766
626.899	779.369
628.061	782.553
629.223	785.068
630.385	786.834
631.546	787.414
632.706	787.47
633.867	787.234
635.028	786.451
636.188	783.284
637.348	779.657
638.507	776.034
639.667	772.583
640.826	769.48
641.984	766.582
643.142	763.694
644.3	761.093
645.458	754.316
646.616	754.748
647.773	756.469
648.93	759.059
650.086	762.448
651.243	765.898
652.399	768.863
653.555	771.105
654.71	770.275
655.865	769.528
657.02	769.414
658.174	769.145
659.329	767.464
660.483	767.209
661.637	766.544
662.79	769.028
663.944	768.506
665.096	768.102
666.249	766.213
667.401	764.233
668.552	762.248
669.705	760.573
670.856	759.311
672.007	758.227
673.158	757.559
674.308	757.013
675.458	756.749
676.609	756.807
677.757	757.213
678.907	757.989
680.057	759.497
681.205	761.59
682.353	763.917
683.502	766.839
684.649	768.945
685.797	771.591
686.944	772.208
688.091	771.284
689.238	770.157
690.385	768.651
691.53	766.981
692.676	765.472
693.822	764.036
694.967	762.669
696.112	760.992
697.257	759.049
698.401	757.123
699.545	755.296
700.689	754.422
701.832	754.056
702.975	753.35
704.119	752.675
705.261	751.888
706.403	751.108
707.546	750.182
708.688	749.024
709.829	746.59
710.97	744.575
712.11	743.157
713.252	741.615
714.392	740.13
715.532	738.771
716.672	737.598
717.811	736.608
718.95	735.701
720.089	735.187
721.227	734.855
722.366	734.85
723.504	734.908
724.642	734.919
725.779	735.186
726.916	735.202
728.053	735.003
729.19	733.764
730.326	731.971
731.462	729.731
732.597	727.668
733.733	726.06
734.868	724.888
736.003	725.074
737.137	729.041
738.272	732.253
739.405	733.87
740.539	735.172
741.672	738.776
742.805	741.378
743.938	743.101
745.071	743.727
746.203	743.065
747.335	738.517
748.467	736.628
749.598	734.384
750.728	731.843
751.86	728.94
752.99	725.361
754.12	721.506
755.25	719.614
756.38	715.666
757.509	711.315
758.638	703.72
759.767	698.761
760.896	693.952
762.023	689.722
763.152	685.926
764.279	682.848
765.406	680.074
766.533	677.463
767.66	674.828
768.786	673.479
769.912	671.733
771.038	668.576
772.164	665.278
773.289	663.141
774.414	661.108
775.539	658.782
776.664	656.867
777.787	655.479
778.911	652.109
780.035	649.773
781.158	648.12
782.281	647.198
783.404	646.852
784.526	647.393
785.648	649.014
786.77	651.356
787.891	652.703
789.013	653.199
790.134	652.928
791.254	651.931
792.374	650.164
793.494	647.665
794.614	644.787
795.734	638.273
796.853	634.571
797.973	631.366
799.091	627.971
800.21	624.252
801.327	620.885
802.445	619.207
803.563	619.056
804.68	618.771
805.797	618.446
806.914	618.096
808.03	618.062
809.146	617.848
810.262	617.766
811.377	617.775
812.492	618.966
813.608	618.039
814.722	616.525
815.836	615.098
816.95	611.104
818.064	606.886
819.177	603.132
820.291	600.151
821.404	598.387
822.517	597.41
823.628	597.324
824.741	598.191
825.852	597.846
826.964	598.952
828.075	598.762
829.186	595.831
830.297	594.679
831.407	593.65
832.517	592.638
833.627	591.623
834.736	590.856
835.846	592.144
836.954	591.018
838.063	590.424
839.171	585.552
840.279	585.668
841.387	586.761
842.494	589.564
843.602	592.911
844.709	595.856
845.815	598.554
846.922	600.536
848.028	592.185
849.134	591.676
850.239	590.934
851.344	590.056
852.449	588.847
853.554	587.265
854.658	585.417
855.762	583.311
856.865	580.913
857.969	577.87
859.073	574.753
860.175	571.575
861.278	568.802
862.38	566.785
863.482	565.444
864.584	564.498
865.686	563.777
866.787	563.058
867.887	561.547
868.988	562.121
870.088	560.657
871.189	559.295
872.288	557.911
873.387	557.248
874.487	554.29
875.586	550.497
876.684	547.544
877.783	545.182
878.881	543.231
879.979	541.756
881.076	540.723
882.173	539.936
883.27	539.467
884.366	539.088
885.463	538.825
886.559	538.065
887.655	534.507
888.75	534.251
889.845	534.469
890.94	534.914
892.035	535.391
893.13	535.809
894.223	536.266
895.318	536.422
896.411	536.516
897.504	536.361
898.597	536.249
899.69	535.823
900.782	535.316
901.874	535.062
902.966	534.943
904.057	535.26
905.148	535.564
906.239	536.046
907.33	536.494
908.42	536.857
909.51	537.559
910.601	538.848
911.69	539.34
912.779	538.997
913.868	538.43
914.956	538.075
916.045	536.682
917.133	535.139
918.221	533.552
919.308	532.046
920.396	531.022
921.483	529.97
922.569	528.355
923.656	526.379
924.742	523.862
925.827	520.847
926.913	517.502
927.999	513.97
929.083	510.387
930.168	506.905
931.253	503.428
932.337	499.758
933.42	496.115
934.504	492.694
935.587	489.717
936.67	487.407
937.753	485.527
938.835	484.778
939.917	485.042
940.999	485.039
942.081	485.537
943.162	485.171
944.243	484.384
945.324	484.028
946.404	483.708
947.484	483.272
948.565	482.7
949.644	482.189
950.723	480.474
951.802	478.61
952.881	476.745
953.96	474.854
955.038	473.001
956.116	471.526
957.193	470.21
958.27	468.934
959.347	467.834
960.425	466.82
961.501	465.93
962.577	465.181
963.653	464.585
964.729	464.112
965.804	463.775
966.879	463.597
967.954	463.601
969.029	463.689
970.102	463.973
971.177	464.258
972.25	464.945
973.324	462.974
974.397	465.662
975.469	469.155
976.542	473.098
977.614	477.161
978.686	480.886
979.758	484.368
980.83	487.824
981.9	491.25
982.972	492.321
984.042	492.066
985.112	490.574
986.182	488.441
987.252	485.026
988.321	481.592
989.39	478.552
990.46	476.374
991.528	475.085
992.596	473.391
993.664	472.665
994.732	472.219
995.8	472.194
996.867	472.554
997.934	473.598
999	475.154
1000.07	476.614
1001.13	477.185
1002.2	477.178
1003.26	476.092
1004.33	474.331
1005.39	471.902
1006.46	469.309
1007.52	466.223
1008.59	462.855
1009.65	458.879
1010.71	453.834
1011.78	448.746
1012.84	445.025
1013.9	442.702
1014.97	439.313
1016.03	436.392
1017.09	433.688
1018.15	431.4
1019.21	429.408
1020.27	427.524
1021.33	425.809
1022.39	423.931
1023.46	421.928
1024.51	419.739
1025.57	417.697
1026.63	415.817
1027.69	413.996
1028.75	412.311
1029.81	410.92
1030.87	410.288
1031.93	410.24
1032.98	410.356
1034.04	409.851
1035.1	409.353
1036.15	409.144
1037.21	409.344
1038.27	410.182
1039.32	411.198
1040.38	412.356
1041.44	413.671
1042.49	414.952
1043.55	416.153
1044.6	417.297
1045.65	418.154
1046.71	418.44
1047.76	418.353
1048.82	417.64
1049.87	416.129
1050.92	414.239
1051.97	412.087
1053.03	410.136
1054.08	408.409
1055.13	406.295
1056.18	404.328
1057.23	402.548
1058.28	401.298
1059.33	400.396
1060.38	399.862
1061.44	399.594
1062.48	399.973
1063.53	400.612
1064.58	401.391
1065.63	402.019
1066.68	402.77
1067.73	403.43
1068.78	403.943
1069.83	404.263
1070.87	403.944
1071.92	403.664
1072.97	402.227
1074.01	399.926
1075.06	397.155
1076.11	394.71
1077.15	392.737
1078.2	391.301
1079.24	390.419
1080.29	390.012
1081.33	389.998
1082.38	389.174
1083.42	388.334
1084.47	387.539
1085.51	387.413
1086.55	385.785
1087.6	383.751
1088.64	380.813
1089.68	377.33
1090.72	375.484
1091.77	371.886
1092.81	370.394
1093.85	369.109
1094.89	367.917
1095.93	367.451
1096.97	368.064
1098.01	370.28
1099.05	372.839
1100.09	374.786
1101.13	376.456
1102.17	377.859
1103.21	378.016
1104.25	377.835
1105.29	378.117
1106.33	378.944
1107.36	380.551
1108.4	381.095
1109.44	380.315
1110.48	378.931
1111.51	376.994
1112.55	374.55
1113.58	371.571
1114.62	367.8
1115.66	364.097
1116.69	361.211
1117.73	358.629
1118.76	356.285
1119.8	354.337
1120.83	352.552
1121.86	351.204
1122.9	350.339
1123.93	350.079
1124.96	351.606
1126	353.801
1127.03	355.946
1128.06	358.233
1129.1	360.616
1130.13	362.827
1131.16	364.948
1132.19	367.079
1133.22	369.285
1134.25	371.591
1135.28	374.114
1136.31	376.973
1137.34	379.993
1138.37	383.786
1139.4	384.923
1140.43	385.447
1141.46	386.212
1142.49	386.316
1143.51	386.687
1144.54	387.394
1145.57	389.13
1146.6	391.394
1147.62	394.486
1148.65	398.016
1149.68	401.862
1150.7	405.537
1151.73	408.575
1152.76	412.091
1153.78	418.442
1154.81	419.661
1155.83	418.536
1156.85	416.687
1157.88	413.751
1158.9	409.252
1159.93	400.192
1160.95	393.009
1161.97	382.737
1163	373.928
1164.02	365.263
1165.04	357.353
1166.06	350.005
1167.09	344.414
1168.11	341.183
1169.13	339.699
1170.15	339.974
1171.17	340.791
1172.19	341.206
1173.21	342.105
1174.23	343.596
1175.25	346.418
1176.27	349.441
1177.29	352.59
1178.31	356.146
1179.33	359.425
1180.34	361.833
1181.36	363.097
1182.38	363.648
1183.4	363.727
1184.41	363.773
1185.43	363.386
1186.45	362.741
1187.46	361.983
1188.48	361.575
1189.5	358.511
1190.51	355.279
1191.53	351.172
1192.54	347.43
1193.56	342.895
1194.57	338.59
1195.59	333.453
1196.6	330.512
1197.61	328.243
1198.63	326.732
1199.64	326.246
1200.65	326.214
1201.66	328.777
1202.68	331.36
1203.69	332.65
1204.7	334.051
1205.71	335.163
1206.72	336.019
1207.73	336.252
1208.74	336.137
1209.75	335.409
1210.76	334.336
1211.77	332.856
1212.78	330.908
1213.79	329.853
1214.8	329.582
1215.81	329.994
1216.82	331.055
1217.83	331.413
1218.84	332.199
1219.84	332.916
1220.85	333.335
1221.86	334.032
1222.86	334.486
1223.87	334.531
1224.88	334.068
1225.88	333.29
1226.89	332.122
1227.89	330.487
1228.9	328.381
1229.9	325.805
1230.91	322.98
1231.91	319.878
1232.92	316.642
1233.92	314.07
1234.92	312.027
1235.93	310.234
1236.93	308.516
1237.93	306.822
1238.93	305.196
1239.94	303.644
1240.94	302.157
1241.94	300.777
1242.94	299.455
1243.94	298.245
1244.94	297.115
1245.94	296.072
1246.94	295.161
1247.94	294.335
1248.94	293.626
1249.94	293.029
1250.94	292.512
1251.94	292.175
1252.94	291.9
1253.94	291.882
1254.93	292.003
1255.93	292.491
1256.93	292.846
1257.93	293.182
1258.92	293.384
1259.92	293.454
1260.92	293.533
1261.91	293.072
1262.91	292.072
1263.9	290.802
1264.9	289.332
1265.89	287.746
1266.89	286.064
1267.88	284.32
1268.88	282.383
1269.87	280.694
1270.87	279.374
1271.86	278.607
1272.85	278.416
1273.85	278.713
1274.84	279.547
1275.83	280.952
1276.82	282.823
1277.81	285.292
1278.8	288.015
1279.8	290.51
1280.79	291.617
1281.78	292.732
1282.77	293.571
1283.76	294.113
1284.75	294.113
1285.74	293.453
1286.73	292.333
1287.72	289.9
1288.71	288.124
1289.69	285.945
1290.68	282.564
1291.67	279.638
1292.66	276.962
1293.64	274.638
1294.63	272.607
1295.62	270.973
1296.61	269.709
1297.59	268.809
1298.58	268.304
1299.56	268.083
1300.55	268.16
1301.53	268.783
1302.52	269.652
1303.5	270.686
1304.49	271.804
1305.47	272.227
1306.46	272.464
1307.44	272.194
1308.42	272.175
1309.41	270.778
1310.39	269.174
1311.37	268.217
1312.35	267.353
1313.34	266.969
1314.32	267.29
1315.3	268.499
1316.28	270.461
1317.26	272.949
1318.24	275.87
1319.22	278.956
1320.2	282.471
1321.18	287.795
1322.16	292.054
1323.14	295.547
1324.12	297.691
1325.1	298.033
1326.08	297.026
1327.06	294.903
1328.03	291.902
1329.01	288.161
1329.99	283.854
1330.97	279.272
1331.94	274.454
1332.92	269.225
1333.9	264.032
1334.87	259.852
1335.85	256.129
1336.82	252.991
1337.8	250.331
1338.77	249.77
1339.75	249.113
1340.72	248.815
1341.7	249.012
1342.67	249.508
1343.64	250.159
1344.62	250.888
1345.59	251.828
1346.56	252.689
1347.54	253.795
1348.51	254.642
1349.48	255.191
1350.45	255.177
1351.42	254.67
1352.39	253.856
1353.37	252.704
1354.34	251.184
1355.31	249.427
1356.28	247.355
1357.25	245.11
1358.22	243.198
1359.19	240.745
1360.16	238.475
1361.12	236.425
1362.09	235.008
1363.06	234.057
1364.03	233.484
1365	233.328
1365.96	233.819
1366.93	234.569
1367.9	234.923
1368.86	235.344
1369.83	235.724
1370.8	235.868
1371.76	235.766
1372.73	235.461
1373.69	234.932
1374.66	234.122
1375.62	232.791
1376.59	230.73
1377.55	229.904
1378.52	227.254
1379.48	226.799
1380.44	226.803
1381.41	227.332
1382.37	228.148
1383.33	229.073
1384.3	230.323
1385.26	231.74
1386.22	235.334
1387.18	237.466
1388.14	237.558
1389.1	236.566
1390.06	235.032
1391.02	232.993
1391.98	230.927
1392.94	228.765
1393.9	226.58
1394.86	224.485
1395.82	222.604
1396.78	221.062
1397.74	219.729
1398.7	219.801
1399.66	219.916
1400.61	220.322
1401.57	220.631
1402.53	220.854
1403.49	220.958
1404.44	220.915
1405.4	220.768
1406.36	220.445
1407.31	220.018
1408.27	219.292
1409.22	218.488
1410.18	217.464
1411.13	216.153
1412.09	214.853
1413.04	213.641
1414	212.508
1414.95	211.496
1415.9	211.046
1416.86	210.69
1417.81	210.592
1418.76	210.744
1419.72	210.974
1420.67	211.484
1421.62	212.078
1422.57	212.805
1423.52	213.614
1424.47	214.422
1425.42	215.388
1426.38	216.277
1427.33	217.25
1428.28	218.29
1429.23	219.341
1430.18	220.322
1431.12	221.257
1432.07	222.187
1433.02	222.967
1433.97	223.636
1434.92	224.33
1435.87	224.751
1436.82	225.211
1437.76	225.469
1438.71	225.407
1439.66	224.103
1440.6	222.639
1441.55	221.018
1442.5	219.776
1443.44	218.852
1444.39	218.006
1445.33	217.284
1446.28	216.402
1447.22	215.407
1448.17	214.561
1449.11	214.482
1450.06	214.335
1451	214.096
1451.94	213.434
1452.89	212.634
1453.83	211.786
1454.77	210.853
1455.71	209.88
1456.66	208.808
1457.6	207.688
1458.54	206.562
1459.48	205.421
1460.42	204.366
1461.36	203.385
1462.3	202.357
1463.24	201.247
1464.18	200.207
1465.12	199.31
1466.06	198.51
1467	198.007
1467.94	198.444
1468.88	198.568
1469.82	198.197
1470.76	197.758
1471.69	197.209
1472.63	196.516
1473.57	195.657
1474.51	195.01
1475.44	195.066
1476.38	195.669
1477.32	196.431
1478.25	197.312
1479.19	198.086
1480.12	198.536
1481.06	198.932
1481.99	199.189
1482.93	199.493
1483.86	200.049
1484.8	200.824
1485.73	201.564
1486.67	202.214
1487.6	202.51
1488.53	201.821
1489.47	200.586
1490.4	199.679
1491.33	199.39
1492.26	199.429
1493.19	197.81
1494.13	196.519
1495.06	195.23
1495.99	193.822
1496.92	192.505
1497.85	191.421
1498.78	190.681
1499.71	190.528
1500.64	190.583
1501.57	191.039
1502.5	191.967
1503.43	193.732
1504.36	195.147
1505.28	194.889
1506.21	195.13
1507.14	196.024
1508.07	197.779
1509	200.429
1509.92	204.733
1510.85	208.137
1511.78	211.564
1512.7	215.366
1513.63	219.858
1514.55	224.742
1515.48	230.417
1516.4	234.788
1517.33	239.27
1518.25	243.656
1519.18	247.199
1520.1	250.723
1521.03	254.315
1521.95	260.526
1522.87	262.568
1523.8	263.463
1524.72	263.652
1525.64	262.975
1526.57	261.497
1527.49	258.804
1528.41	255.234
1529.33	250.998
1530.25	246.504
1531.17	241.908
1532.1	237.055
1533.02	232.095
1533.94	227.232
1534.86	223.394
1535.78	219.553
1536.7	216.294
1537.61	210.996
1538.53	205.805
1539.45	200.387
1540.37	195.893
1541.29	192.391
1542.21	189.714
1543.12	187.977
1544.04	187.126
1544.96	187.144
1545.88	188.003
1546.79	189.898
1547.71	191.201
1548.63	190.037
1549.54	190.595
1550.46	190.912
1551.37	190.842
1552.29	190.518
1553.2	189.801
1554.12	188.823
1555.03	187.322
1555.95	185.495
1556.86	183.488
1557.77	181.307
1558.69	179.047
1559.6	176.71
1560.51	174.469
1561.42	171.897
1562.34	169.117
1563.25	166.533
1564.16	164.891
1565.07	163.37
1565.98	162.214
1566.89	161.696
1567.8	161.383
1568.71	161.211
1569.62	160.961
1570.53	160.23
1571.44	159.693
1572.35	159.492
1573.26	159.13
1574.17	159.152
1575.08	159.291
1575.99	159.359
1576.9	158.637
1577.8	157.591
1578.71	157.091
1579.62	156.75
1580.53	156.213
1581.43	155.836
1582.34	155.607
1583.25	155.703
1584.15	155.735
1585.06	155.499
1585.96	154.643
1586.87	153.848
1587.77	153.087
1588.68	152.605
1589.58	152.267
1590.49	152.831
1591.39	153.399
1592.29	154.047
1593.2	155.201
1594.1	156.127
1595	156.049
1595.91	156.356
1596.81	156.671
1597.71	157.195
1598.61	158.299
1599.51	159.324
1600.41	160.358
1601.32	161.137
1602.22	161.658
1603.12	162.333
1604.02	162.64
1604.92	162.251
1605.82	161.443
1606.72	160.446
1607.62	159.304
1608.51	158.11
1609.41	157.125
1610.31	155.738
1611.21	154.532
1612.11	153.167
1613.01	151.722
1613.9	150.513
1614.8	149.511
1615.7	148.798
1616.59	147.949
1617.49	146.851
1618.39	145.693
1619.28	144.799
1620.18	143.724
1621.07	142.614
1621.97	141.715
1622.86	141.115
1623.76	140.993
1624.65	141.107
1625.55	141.387
1626.44	141.936
1627.33	142.641
1628.23	143.256
1629.12	143.279
1630.01	142.785
1630.91	141.646
1631.8	139.59
1632.67	138.684
1633.6	137.574
1634.53	136.332
1635.46	135.292
1636.39	134.676
1637.31	133.82
1638.24	133.7
1639.17	133.525
1640.1	133.522
1641.02	134.198
1641.95	135.183
1642.88	135.449
1643.8	135.454
1644.73	135.733
1645.65	135.929
1646.58	136.083
1647.5	135.985
1648.43	135.483
1649.35	135.101
1650.28	134.401
1651.2	133.578
1652.13	132.983
1653.05	133.018
1653.97	132.723
1654.9	132.611
1655.82	132.524
1656.74	132.327
1657.66	132.322
1658.59	132.371
1659.51	132.155
1660.43	132.538
1661.35	132.746
1662.27	132.209
1663.2	131.485
1664.12	130.735
1665.04	130.112
1665.96	129.794
1666.88	129.508
1667.8	129.443
1668.72	129.554
1669.64	130.122
1670.56	130.669
1671.48	131.145
1672.4	130.979
1673.31	130.426
1674.23	129.803
1675.15	129.658
1676.07	129.606
1676.99	129.282
1677.9	128.942
1678.82	128.353
1679.74	128.289
1680.66	127.015
1681.57	125.926
1682.49	125.245
1683.41	124.909
1684.32	124.861
1685.24	124.823
1686.15	124.239
1687.07	123.725
1687.98	123.251
1688.9	123.051
1689.81	122.877
1690.73	123.159
1691.64	123.151
1692.56	123.17
1693.47	124.052
1694.38	123.994
1695.3	124.52
1696.21	123.319
1697.12	121.421
1698.04	119.769
1698.95	116.548
1699.86	112.806
1700.77	109.418
1701.68	106.896
1702.6	105.055
1703.51	106.577
1704.42	116.513
1705.33	116.571
1706.24	116.007
1707.15	115.327
1708.06	114.241
1708.97	112.427
1709.88	112.637
1710.79	111.738
1711.7	110.654
1712.61	110.506
1713.52	110.344
1714.43	110.396
1715.33	111.063
1716.24	111.648
1717.15	112.25
1718.06	112.702
1718.97	113.244
1719.87	112.608
1720.78	111.963
1721.69	111.261
1722.59	110.443
1723.5	110.062
1724.41	109.631
1725.31	109.66
1726.22	109.259
1727.12	108.764
1728.03	108.677
1728.93	108.735
1729.84	109.209
1730.74	110.153
1731.65	110.134
1732.55	110.093
1733.46	110.612
1734.36	110.942
1735.26	111.173
1736.17	112.198
1737.07	112.957
1737.97	113.852
1738.87	113.474
1739.78	112.843
1740.68	112.181
1741.58	112.341
1742.48	112.272
1743.38	112.078
1744.29	111.844
1745.19	111.609
1746.09	111.566
1746.99	111.448
1747.89	111.38
1748.79	110.713
1749.69	109.943
1750.59	108.905
1751.49	108.468
1752.39	107.586
1753.29	106.579
1754.18	105.927
1755.08	105.889
1755.98	105.579
1756.88	105.29
1757.78	104.902
1758.67	104.718
1759.57	105.226
1760.47	105.187
1761.37	105.154
1762.26	104.296
1763.16	103.914
1764.06	104.391
1764.95	104.566
1765.85	104.941
1766.74	105.398
1767.64	105.382
1768.53	105.087
1769.43	105.2
1770.32	105.249
1771.22	105.733
1772.11	105.985
1773.01	105.695
1773.9	104.837
1774.79	104.23
1775.69	103.907
1776.58	103.884
1777.47	103.601
1778.37	103.399
1779.26	103.104
1780.15	102.478
1781.04	101.813
1781.93	101.252
1782.83	100.578
1783.72	99.847
1784.61	99.58
1785.5	99.4646
1786.39	99.717
1787.28	99.8959
1788.17	100.049
1789.06	100.287
1789.95	100.296
1790.84	100.387
1791.73	100.526
1792.62	100.933
1793.51	101.494
1794.4	102.187
1795.28	102.123
1796.17	102.049
1797.06	101.637
1797.95	98.7522
1798.84	95.3377
1799.72	89.9343
