Acq. time (s)=	15
Accumulations=	2
Range (cm-¹)=	600...1800
Windows=	2
Autofocus=	Off
AutoExposure=	Off
Spike filter=	Multiple accum.
Delay time (s)=	1
Binning=	1
Readout mode=	Signal
DeNoise=	Standard
ICS correction=	Off
Dark correction=	Off
Inst. Process=	Off
Instrument=	XploRA
Detector=	Syncerity
Objective=	x20LWD
Grating=	1200 gr/mm
Filter=	25%
Laser (nm)=	785 
Slit (µm)=	100 
Hole (µm)=	300 
Laser pol=	None
Raman pol=	None
Output=	Camera
StageXY=	Marzhauser
StageZ=	
X (µm)=	7206.6
Y (µm)=	-2238.2
Project=	
Sample=	
Site=	
Title=	CLsoP1 f5
Remark=	
Date=	06.04.2022 11:36
Acquired=	06.04.2022 11:36:24
600.731	1547.72
601.9	1562.75
603.069	1576.29
604.238	1595.15
605.406	1605
606.575	1611.18
607.743	1615.44
608.91	1617.83
610.078	1619.18
611.245	1622.96
612.411	1627.81
613.579	1634.13
614.745	1640.6
615.91	1648.52
617.076	1657.81
618.241	1669.52
619.407	1675.59
620.571	1680.81
621.735	1685.8
622.9	1691.14
624.063	1694.25
625.227	1698.94
626.39	1703.76
627.553	1709.04
628.716	1713.9
629.879	1718.56
631.041	1722.38
632.203	1725.38
633.364	1727.95
634.526	1729.76
635.686	1731.52
636.847	1732.96
638.007	1734.07
639.167	1734.8
640.327	1734.94
641.486	1732.94
642.645	1733.41
643.805	1734.7
644.963	1738.1
646.122	1746.63
647.28	1749.34
648.438	1752.25
649.594	1753.86
650.752	1754.15
651.909	1752.86
653.065	1750.66
654.221	1748.62
655.377	1747.2
656.533	1746.58
657.688	1746.93
658.843	1748.13
659.998	1750.21
661.153	1753.42
662.307	1757.24
663.461	1762.04
664.615	1767.3
665.768	1774.07
666.921	1781.03
668.074	1787.76
669.226	1793.12
670.379	1797.62
671.53	1801.01
672.682	1803.4
673.833	1805.16
674.984	1805.7
676.135	1805.88
677.285	1805.79
678.436	1805.95
679.586	1806.26
680.735	1807.2
681.884	1808.09
683.033	1809.11
684.182	1810.26
685.33	1811.49
686.478	1812.9
687.626	1814.25
688.774	1815.64
689.921	1816.94
691.068	1818.37
692.214	1819.75
693.361	1821.46
694.507	1823.19
695.652	1824.66
696.798	1824.36
697.943	1824.13
699.088	1823.22
700.233	1821.79
701.377	1819.57
702.521	1816.24
703.665	1811.39
704.808	1805.52
705.951	1799.51
707.094	1797.53
708.236	1795.27
709.379	1792.23
710.522	1789.55
711.663	1787.75
712.804	1789.31
713.946	1788.27
715.086	1786.59
716.227	1785.53
717.367	1784.55
718.507	1783.26
719.647	1781.71
720.786	1779.89
721.925	1777.74
723.064	1775.12
724.202	1771.75
725.341	1767.82
726.479	1763.39
727.616	1758.5
728.753	1753.66
729.89	1749.67
731.027	1746.88
732.163	1743.37
733.3	1743.26
734.436	1745.18
735.572	1751.18
736.707	1756.28
737.842	1765.33
738.977	1774.25
740.111	1782.56
741.246	1789.63
742.379	1795.78
743.513	1800.27
744.646	1802.27
745.779	1801.05
746.911	1790.63
748.044	1786.19
749.176	1773.65
750.308	1768.63
751.44	1763.2
752.571	1757.74
753.702	1752.33
754.833	1746.63
755.963	1740.84
757.093	1734.48
758.223	1727.78
759.353	1720.3
760.481	1712.56
761.61	1704.44
762.74	1696.31
763.867	1688.21
764.996	1680.23
766.124	1672.52
767.251	1664.86
768.378	1657.54
769.505	1650.41
770.631	1643.39
771.758	1636.34
772.884	1629.84
774.01	1623.62
775.136	1617.53
776.261	1611.67
777.386	1605.66
778.51	1600.09
779.634	1594.78
780.758	1589.53
781.882	1584.06
783.006	1578.66
784.129	1572.81
785.252	1567.06
786.375	1561.36
787.497	1556.16
788.619	1551.44
789.741	1548.02
790.862	1545.89
791.983	1544.45
793.104	1544.03
794.225	1543.98
795.345	1543.89
796.465	1543.16
797.585	1542.32
798.704	1540.15
799.823	1537.14
800.943	1534.98
802.061	1533.62
803.179	1529.64
804.297	1524.58
805.415	1518.67
806.532	1511.51
807.649	1501.56
808.766	1489.99
809.883	1479.71
810.999	1471.32
812.115	1465.77
813.231	1463.17
814.346	1462.9
815.461	1465.66
816.577	1475.58
817.691	1477.22
818.805	1476.48
819.919	1475.23
821.033	1473.91
822.146	1472.96
823.259	1472.13
824.372	1471.2
825.485	1469.97
826.597	1468.64
827.709	1467.06
828.82	1465.4
829.932	1463.52
831.043	1461.58
832.154	1459.69
833.265	1457.8
834.375	1455.96
835.484	1453.74
836.594	1451.29
837.704	1448.77
838.813	1446.01
839.922	1443.24
841.03	1440.5
842.138	1437.74
843.246	1435.15
844.354	1432.57
845.461	1430.1
846.568	1427.67
847.675	1424.93
848.782	1422.19
849.888	1422.43
850.994	1422.36
852.1	1422.92
853.205	1423.54
854.31	1423.91
855.415	1423.83
856.52	1423.05
857.624	1421.66
858.727	1419.56
859.831	1416.68
860.935	1413.1
862.038	1408.75
863.141	1403.23
864.243	1396.28
865.345	1387.42
866.448	1378.63
867.549	1371.46
868.651	1365.52
869.751	1360.8
870.852	1357.18
871.953	1354.31
873.053	1352.23
874.153	1350.73
875.253	1349.88
876.352	1348.92
877.451	1348.28
878.55	1348.08
879.648	1348.05
880.747	1347.67
881.845	1346.63
882.943	1344.97
884.039	1342.15
885.137	1338.23
886.233	1333.46
887.33	1328.84
888.426	1326.14
889.522	1323.88
890.618	1320.15
891.713	1317.38
892.808	1316.63
893.903	1314.48
894.998	1311.38
896.092	1306.51
897.186	1301.64
898.28	1297.91
899.374	1295.2
900.467	1294.39
901.559	1294.74
902.652	1299.66
903.744	1300.62
904.836	1301.9
905.927	1304.08
907.019	1307.03
908.111	1310.63
909.201	1316.09
910.291	1321.3
911.382	1325.22
912.472	1327.82
913.562	1329.35
914.651	1329.67
915.741	1328.58
916.829	1326.33
917.918	1322.75
919.006	1318.14
920.094	1312.49
921.181	1305.53
922.269	1297.49
923.356	1288.09
924.443	1277.72
925.53	1266.02
926.616	1254.29
927.702	1246.13
928.788	1239.01
929.873	1232.87
930.958	1227.5
932.044	1222.71
933.128	1218.27
934.212	1214.15
935.296	1210.77
936.38	1208.61
937.463	1206.88
938.547	1205.67
939.63	1204.78
940.712	1204.05
941.795	1203.13
942.876	1202.43
943.958	1202.02
945.039	1201.65
946.121	1201.1
947.202	1200.23
948.282	1198.93
949.363	1196.55
950.443	1193.82
951.522	1190.39
952.602	1186.34
953.681	1182.16
954.76	1178.15
955.839	1174.95
956.917	1172.66
957.995	1170.75
959.073	1169.27
960.151	1167.86
961.228	1166.58
962.305	1165.78
963.381	1166.47
964.458	1167.75
965.534	1168.81
966.61	1169.46
967.685	1169.37
968.76	1168.53
969.836	1167.34
970.91	1164.94
971.984	1161.84
973.059	1159.07
974.133	1157.31
975.206	1157.41
976.279	1158.69
977.352	1161.23
978.425	1164.35
979.497	1168.26
980.57	1172.53
981.642	1176.45
982.714	1181.43
983.785	1186.21
984.856	1190.54
985.927	1193.16
986.997	1194.55
988.067	1194.59
989.137	1193.28
990.206	1190.32
991.276	1186.13
992.345	1179.43
993.413	1175.17
994.482	1171.8
995.55	1169.02
996.619	1166.42
997.686	1164.1
998.754	1162.57
999.821	1162.95
1000.89	1163.71
1001.95	1163.85
1003.02	1161.83
1004.09	1158.29
1005.15	1153.05
1006.22	1146.44
1007.28	1138.17
1008.35	1128.45
1009.41	1117
1010.48	1108.55
1011.54	1100.83
1012.6	1093.68
1013.67	1086.66
1014.73	1080.28
1015.79	1074.35
1016.86	1069.06
1017.92	1064.2
1018.98	1059.61
1020.04	1055.77
1021.1	1052.43
1022.16	1049.46
1023.23	1046.24
1024.29	1042.99
1025.35	1039.06
1026.41	1035.57
1027.47	1032.42
1028.53	1029.75
1029.58	1027.53
1030.64	1025.81
1031.7	1024.39
1032.76	1022.84
1033.82	1021.58
1034.88	1020.48
1035.93	1019.76
1036.99	1019.46
1038.05	1019.62
1039.11	1020.81
1040.16	1023.31
1041.22	1026.23
1042.27	1029.2
1043.33	1030.98
1044.38	1033.25
1045.44	1034.81
1046.49	1035.47
1047.55	1034.97
1048.6	1032.13
1049.66	1027.92
1050.71	1023.24
1051.76	1017.67
1052.82	1012.47
1053.87	1007.63
1054.92	1003.1
1055.97	999.007
1057.03	995.898
1058.08	993.69
1059.13	991.795
1060.18	990.486
1061.23	989.676
1062.28	988.915
1063.33	988.391
1064.38	988.516
1065.43	991.381
1066.48	994.044
1067.53	994.665
1068.58	994.175
1069.63	993.192
1070.68	991.65
1071.72	989.898
1072.77	988.207
1073.82	985.275
1074.87	981.935
1075.91	978.035
1076.96	974.664
1078.01	971.331
1079.05	968.54
1080.1	965.722
1081.14	962.907
1082.19	960.164
1083.23	957.458
1084.28	954.663
1085.32	951.691
1086.37	948.741
1087.41	945.77
1088.46	942.826
1089.5	939.575
1090.54	936.438
1091.58	933.506
1092.63	930.83
1093.67	928.996
1094.71	927.682
1095.75	927.419
1096.79	928.177
1097.83	929.587
1098.88	931.346
1099.92	933.335
1100.96	935.027
1102	936.363
1103.04	937.996
1104.08	939.416
1105.11	940.496
1106.15	941.297
1107.19	941.576
1108.23	941.247
1109.27	940.294
1110.31	938.701
1111.34	936.578
1112.38	934.068
1113.42	931.063
1114.45	927.857
1115.49	924.536
1116.53	921.345
1117.56	918.097
1118.6	914.903
1119.63	911.899
1120.67	909.205
1121.7	906.914
1122.74	904.6
1123.77	902.463
1124.81	900.703
1125.84	899.534
1126.87	898.822
1127.91	898.744
1128.94	899.68
1129.97	901.304
1131	903.736
1132.04	906.793
1133.07	910.696
1134.1	915.429
1135.13	920.939
1136.16	927.518
1137.19	935.093
1138.22	943.808
1139.25	952.922
1140.28	958.552
1141.31	963.07
1142.34	966.515
1143.37	969.263
1144.4	969.934
1145.42	969.235
1146.45	967.674
1147.48	964.121
1148.51	964.759
1149.53	961.515
1150.56	966.107
1151.59	975.539
1152.62	987.242
1153.64	1001.9
1154.67	1044.86
1155.69	1049.74
1156.72	1048.88
1157.74	1044.12
1158.77	1019.38
1159.79	1000.82
1160.82	980.399
1161.84	958.947
1162.86	938.73
1163.89	920.414
1164.91	906.175
1165.93	894.389
1166.96	884.697
1167.98	877.098
1169	871.176
1170.02	867.311
1171.04	865.089
1172.06	865.05
1173.09	866.691
1174.11	870.4
1175.13	874.356
1176.15	878.361
1177.17	882.47
1178.18	886.157
1179.2	890.032
1180.22	893.667
1181.24	897.028
1182.26	899.815
1183.28	902.089
1184.3	903.53
1185.31	903.768
1186.33	903.543
1187.35	902.015
1188.37	899.604
1189.38	896.16
1190.4	890.892
1191.41	884.136
1192.43	876.566
1193.44	868.583
1194.46	861.25
1195.48	854.246
1196.49	847.901
1197.5	842.363
1198.52	837.474
1199.53	833.162
1200.54	829.577
1201.56	826.63
1202.57	824.377
1203.58	822.782
1204.6	821.832
1205.61	821.838
1206.62	822.83
1207.63	824.344
1208.64	826.468
1209.65	828.518
1210.66	830.373
1211.67	832.281
1212.68	833.85
1213.69	834.762
1214.7	835.17
1215.71	835.161
1216.72	834.537
1217.73	833.262
1218.74	831.512
1219.75	829.48
1220.76	827.258
1221.76	825.033
1222.77	823.039
1223.78	821.46
1224.79	820.097
1225.79	819.102
1226.8	818.02
1227.8	816.935
1228.81	815.613
1229.82	813.75
1230.82	811.309
1231.83	807.906
1232.83	802.841
1233.84	796.119
1234.84	788.43
1235.84	780.021
1236.85	770.979
1237.85	761.525
1238.85	751.075
1239.86	740.619
1240.86	732.775
1241.86	727.993
1242.86	728.441
1243.86	737.197
1244.87	737.682
1245.87	737.497
1246.87	736.056
1247.87	733.601
1248.87	729.312
1249.87	725.938
1250.87	725.325
1251.87	723.971
1252.87	722.368
1253.87	720.747
1254.86	719.409
1255.86	717.978
1256.86	717.039
1257.86	716.403
1258.86	716.167
1259.85	716.002
1260.85	715.807
1261.85	715.463
1262.84	715.145
1263.84	714.349
1264.84	713.746
1265.83	713.122
1266.83	712.409
1267.82	711.566
1268.82	710.557
1269.81	709.47
1270.81	708.202
1271.8	706.811
1272.8	705.574
1273.79	703.986
1274.78	702.432
1275.77	701.022
1276.77	700.118
1277.76	699.716
1278.75	700.259
1279.74	701.058
1280.74	702.295
1281.73	704.104
1282.72	706.506
1283.71	709.717
1284.7	712.881
1285.69	715.603
1286.68	716.814
1287.67	717.068
1288.66	716.186
1289.65	714.396
1290.64	711.673
1291.63	708.101
1292.61	703.744
1293.6	698.385
1294.59	692.974
1295.58	687.818
1296.56	683.919
1297.55	680.825
1298.54	678.471
1299.52	677.093
1300.51	676.462
1301.5	676.408
1302.48	676.987
1303.47	677.118
1304.45	679.099
1305.44	678.897
1306.42	677.316
1307.41	674.085
1308.39	670.249
1309.37	666.245
1310.36	662.377
1311.34	658.982
1312.32	656.159
1313.31	654.045
1314.29	652.853
1315.27	652.347
1316.25	648.72
1317.23	648.602
1318.22	651.002
1319.2	655.723
1320.18	661.428
1321.16	673.013
1322.14	691.218
1323.12	706.279
1324.1	718.781
1325.08	728.698
1326.06	735.633
1327.04	739.748
1328.01	740.678
1328.99	727.196
1329.97	719.575
1330.95	711.277
1331.93	701.848
1332.9	691.858
1333.88	681.282
1334.86	670.272
1335.83	659.283
1336.81	648.333
1337.79	643.491
1338.76	636.399
1339.74	630.294
1340.71	625.451
1341.69	621.42
1342.66	618.505
1343.64	616.312
1344.61	614.796
1345.58	613.961
1346.56	614.061
1347.53	614.632
1348.5	615.79
1349.48	617.298
1350.45	619.565
1351.42	621.43
1352.39	622.658
1353.36	622.806
1354.34	621.436
1355.31	619.086
1356.28	615.638
1357.25	611.417
1358.22	606.211
1359.19	600.168
1360.16	594.374
1361.13	589.733
1362.1	586.344
1363.07	583.559
1364.03	581.636
1365	580.492
1365.97	580.114
1366.94	579.931
1367.91	581.46
1368.87	583.544
1369.84	585.886
1370.81	588.223
1371.77	589.24
1372.74	590.305
1373.71	591.01
1374.67	591.447
1375.64	591.098
1376.6	590.403
1377.57	589.382
1378.53	588.232
1379.5	587.222
1380.46	586.812
1381.42	586.164
1382.39	585.451
1383.35	584.599
1384.31	583.724
1385.28	582.689
1386.24	581.507
1387.2	580.178
1388.16	578.229
1389.13	575.855
1390.09	573.331
1391.05	570.675
1392.01	567.938
1392.97	565.584
1393.93	563.558
1394.89	562.065
1395.85	560.565
1396.81	558.918
1397.77	557.456
1398.73	555.416
1399.69	552.98
1400.64	550.017
1401.6	547.089
1402.56	543.974
1403.52	540.925
1404.48	538.057
1405.43	535.358
1406.39	532.983
1407.35	530.984
1408.3	529.492
1409.26	528.621
1410.22	528.319
1411.17	528.521
1412.13	529.326
1413.08	531.214
1414.04	533.41
1414.99	535.557
1415.94	537.366
1416.9	538.156
1417.85	538.441
1418.81	538.541
1419.76	538.395
1420.71	538.141
1421.66	537.276
1422.62	536.523
1423.57	536.055
1424.52	535.881
1425.47	536.221
1426.42	537.186
1427.37	538.962
1428.33	541.181
1429.28	543.793
1430.23	546.767
1431.18	550.076
1432.13	554.102
1433.07	558.481
1434.02	562.86
1434.97	566.846
1435.92	569.619
1436.87	571.685
1437.82	572.576
1438.77	572.175
1439.71	569.776
1440.66	563.357
1441.61	559.612
1442.55	555.613
1443.5	551.413
1444.45	546.627
1445.39	541.455
1446.34	535.811
1447.28	529.632
1448.23	523.744
1449.18	518.546
1450.12	514.724
1451.06	512.784
1452.01	511.764
1452.95	511.191
1453.9	510.558
1454.84	509.618
1455.78	508.528
1456.72	507.329
1457.67	506.231
1458.61	505.258
1459.55	504.276
1460.49	503.388
1461.43	502.553
1462.38	501.717
1463.32	500.873
1464.26	499.899
1465.2	498.91
1466.14	497.835
1467.08	496.608
1468.02	495.347
1468.96	494.004
1469.9	492.64
1470.83	491.222
1471.77	489.779
1472.71	488.37
1473.65	487.189
1474.59	486.011
1475.53	485.059
1476.46	484.49
1477.4	484.64
1478.34	485.08
1479.27	486.239
1480.21	487.661
1481.14	489.188
1482.08	490.72
1483.02	492.133
1483.95	493.303
1484.89	494.202
1485.82	494.995
1486.75	495.628
1487.69	496.065
1488.62	496.303
1489.56	496.336
1490.49	496.145
1491.42	495.691
1492.35	494.878
1493.29	493.455
1494.22	491.962
1495.15	490.251
1496.08	488.485
1497.01	486.173
1497.95	483.964
1498.88	481.956
1499.81	480.617
1500.74	479.661
1501.67	479.264
1502.6	479.672
1503.53	480.676
1504.46	482.147
1505.39	484.21
1506.31	486.656
1507.24	489.883
1508.17	493.884
1509.1	498.383
1510.03	503.606
1510.95	509.146
1511.88	514.341
1512.81	519.926
1513.74	525.451
1514.66	530.215
1515.59	539.663
1516.51	549.766
1517.44	561.738
1518.37	574.401
1519.29	588.42
1520.22	603.334
1521.14	618.366
1522.06	632.186
1522.99	645.465
1523.91	657.878
1524.84	667.92
1525.76	667.028
1526.68	673.996
1527.61	671.059
1528.53	665.718
1529.45	657.913
1530.37	647.616
1531.29	633.136
1532.21	617.582
1533.14	602.335
1534.06	586.099
1534.98	569.876
1535.9	563.476
1536.82	552.105
1537.74	540.84
1538.66	529.496
1539.58	518.344
1540.5	508.507
1541.42	500.272
1542.33	495.533
1543.25	492.778
1544.17	491.474
1545.09	490.598
1546.01	490.554
1546.92	491.533
1547.84	493.107
1548.76	494.776
1549.67	496.065
1550.59	496.786
1551.51	496.716
1552.42	495.604
1553.34	494.014
1554.25	491.467
1555.17	488.212
1556.08	484.322
1557	480.155
1557.91	475.69
1558.82	470.984
1559.74	466.247
1560.65	461.595
1561.56	461.691
1562.48	458.334
1563.39	455.27
1564.3	452.537
1565.21	450.173
1566.13	448.04
1567.04	446.357
1567.95	445.29
1568.86	444.125
1569.77	443.388
1570.68	442.688
1571.59	442.215
1572.5	442.018
1573.41	441.888
1574.32	441.843
1575.23	441.478
1576.14	441.536
1577.05	441.763
1577.95	442.472
1578.86	443.708
1579.77	445.53
1580.68	446.806
1581.59	447.803
1582.49	448.728
1583.4	449.829
1584.31	450.839
1585.21	452.006
1586.12	453.153
1587.02	454.402
1587.93	455.463
1588.84	456.314
1589.74	457.131
1590.65	457.685
1591.55	458.56
1592.45	459.261
1593.36	460.343
1594.26	461.756
1595.17	463.954
1596.07	466.692
1596.97	469.692
1597.87	472.823
1598.78	475.732
1599.68	478.046
1600.58	479.987
1601.48	482.209
1602.38	484.562
1603.29	486.864
1604.19	489.565
1605.09	491.815
1605.99	493.825
1606.89	495.222
1607.79	495.902
1608.69	495.578
1609.59	494.907
1610.49	494.043
1611.38	493.225
1612.28	491.974
1613.18	490.599
1614.08	489.156
1614.98	488.028
1615.87	487.176
1616.77	485.963
1617.67	484.524
1618.57	483.118
1619.46	482.136
1620.36	481.7
1621.25	481.433
1622.15	481.637
1623.05	482.019
1623.94	481.982
1624.84	481.639
1625.73	480.978
1626.62	480.874
1627.52	480.954
1628.41	481.354
1629.31	482.265
1630.2	483.25
1631.09	484.186
1631.99	485.364
1632.87	485.981
1633.8	485.824
1634.73	485.159
1635.65	484.601
1636.58	483.829
1637.51	482.807
1638.44	481.935
1639.37	480.958
1640.29	480.771
1641.22	480.562
1642.15	479.77
1643.08	477.251
1644	475.105
1644.93	473.357
1645.85	472.148
1646.78	471.165
1647.71	470.331
1648.63	469.96
1649.56	469.571
1650.48	469.418
1651.41	469.472
1652.33	469.71
1653.26	470.611
1654.18	471.478
1655.1	471.884
1656.03	471.82
1656.95	471.476
1657.87	470.248
1658.8	468.74
1659.72	466.504
1660.64	464.101
1661.56	461.21
1662.49	458.533
1663.41	456.258
1664.33	454.509
1665.25	452.794
1666.17	451.34
1667.09	450.209
1668.02	448.964
1668.94	446.9
1669.86	446.536
1670.78	448.405
1671.7	450.739
1672.62	454.001
1673.53	457.063
1674.45	459.63
1675.37	459.711
1676.29	458.949
1677.21	457.365
1678.13	451.28
1679.05	449.002
1679.96	450.449
1680.88	449.527
1681.8	447.851
1682.72	446.219
1683.63	444.81
1684.55	443.489
1685.47	442.568
1686.38	441.745
1687.3	440.945
1688.21	440.362
1689.13	440.689
1690.05	439.747
1690.96	438.743
1691.87	437.258
1692.79	435.848
1693.7	434.144
1694.62	433.766
1695.53	433.368
1696.45	432.749
1697.36	432.081
1698.27	431.482
1699.19	430.163
1700.1	428.427
1701.01	426.829
1701.92	426.094
1702.84	425.213
1703.75	424.356
1704.66	423.206
1705.57	420.005
1706.48	417.94
1707.39	416.453
1708.3	415.372
1709.21	414.53
1710.12	413.571
1711.03	412.152
1711.95	411.181
1712.85	411.233
1713.76	410.539
1714.67	409.884
1715.58	408.956
1716.49	407.926
1717.4	406.577
1718.31	405.045
1719.22	403.478
1720.12	401.576
1721.03	400.162
1721.94	398.412
1722.85	396.567
1723.75	394.832
1724.66	393.483
1725.57	392.441
1726.47	391.055
1727.38	390.1
1728.28	389.378
1729.19	388.529
1730.1	389.127
1731	389.654
1731.91	390.841
1732.81	391.933
1733.71	392.746
1734.62	393.947
1735.52	395.161
1736.43	395.877
1737.33	396.124
1738.23	395.589
1739.14	395.316
1740.04	395.095
1740.94	394.7
1741.85	394.869
1742.75	395.196
1743.65	395.463
1744.55	394.722
1745.45	394.133
1746.35	393.02
1747.26	392.033
1748.16	391.92
1749.06	392.163
1749.96	392.07
1750.86	391.519
1751.76	391.915
1752.66	391.901
1753.56	390.613
1754.46	389.131
1755.36	387.976
1756.25	387.577
1757.15	387.724
1758.05	387.237
1758.95	386.994
1759.85	386.338
1760.75	386.262
1761.64	386.504
1762.54	387.218
1763.44	388.13
1764.33	388.442
1765.23	388.341
1766.13	388.044
1767.02	387.018
1767.92	385.856
1768.82	385.465
1769.71	384.588
1770.61	383.432
1771.5	381.595
1772.4	379.994
1773.29	378.358
1774.19	376.972
1775.08	375.234
1775.97	373.697
1776.87	371.603
1777.76	370.298
1778.65	369.712
1779.55	368.553
1780.44	367.495
1781.33	365.254
1782.23	363.695
1783.12	361.994
1784.01	361.391
1784.9	360.505
1785.79	359.479
1786.68	359.475
1787.58	359.417
1788.47	359.171
1789.36	358.916
1790.25	359.914
1791.14	361.257
1792.03	362.914
1792.92	364.436
1793.81	366.038
1794.7	365.654
1795.58	362.457
1796.47	361.377
1797.36	360.487
1798.25	359.347
1799.14	356.412
