Acq. time (s)=	15
Accumulations=	2
Range (cm-¹)=	600...1800
Windows=	2
Autofocus=	Off
AutoExposure=	Off
Spike filter=	Multiple accum.
Delay time (s)=	1
Binning=	1
Readout mode=	Signal
DeNoise=	Standard
ICS correction=	Off
Dark correction=	Off
Inst. Process=	Off
Instrument=	XploRA
Detector=	Syncerity
Objective=	x20LWD
Grating=	1200 gr/mm
Filter=	25%
Laser (nm)=	785 
Slit (µm)=	100 
Hole (µm)=	300 
Laser pol=	None
Raman pol=	None
Output=	Camera
StageXY=	Marzhauser
StageZ=	
X (µm)=	3296.4
Y (µm)=	2435.3
Project=	
Sample=	
Site=	
Title=	CLsoP1 f4
Remark=	
Date=	06.04.2022 11:29
Acquired=	06.04.2022 11:29:05
600.731	621.719
601.9	624.208
603.069	629.648
604.238	634.952
605.406	638.714
606.575	643.892
607.743	649.415
608.91	655.987
610.078	658.381
611.245	660.468
612.411	663.754
613.579	666.813
614.745	668.574
615.91	668.316
617.076	667.902
618.241	667.152
619.407	666.177
620.571	664.964
621.735	663.079
622.9	661.243
624.063	660.876
625.227	661.751
626.39	663.795
627.553	669.604
628.716	674.204
629.879	678.135
631.041	679.427
632.203	677.277
633.364	675.748
634.526	675.352
635.686	674.107
636.847	672.635
638.007	671.571
639.167	670.343
640.327	670.001
641.486	669.536
642.645	669.398
643.805	665.304
644.963	661.637
646.122	659.065
647.28	656.955
648.438	655.423
649.594	654.047
650.752	653.646
651.909	653.899
653.065	654.443
654.221	654.789
655.377	655.137
656.533	655.36
657.688	655.447
658.843	655.437
659.998	655.382
661.153	655.168
662.307	655.031
663.461	654.873
664.615	654.915
665.768	655.529
666.921	656.789
668.074	658.716
669.226	660.877
670.379	661.285
671.53	661.597
672.682	661.688
673.833	661.832
674.984	661.896
676.135	661.863
677.285	661.181
678.436	660.36
679.586	657.537
680.735	655.13
681.884	652.923
683.033	651.269
684.182	650.173
685.33	647.992
686.478	645.971
687.626	644.989
688.774	644.953
689.921	645.77
691.068	646.38
692.214	647.263
693.361	639.506
694.507	638.478
695.652	639.924
696.798	641.802
697.943	643.912
699.088	646.394
700.233	649.142
701.377	647.725
702.521	645.903
703.665	644.067
704.808	642.282
705.951	639.803
707.094	637.603
708.236	635.847
709.379	634.263
710.522	632.702
711.663	631.108
712.804	629.517
713.946	627.345
715.086	625.475
716.227	623.903
717.367	623.287
718.507	622.99
719.647	622.958
720.786	623.171
721.925	623.521
723.064	622.546
724.202	621.125
725.341	619.935
726.479	618.714
727.616	617.338
728.753	613.913
729.89	612.77
731.027	612.179
732.163	612.116
733.3	612.717
734.436	613.64
735.572	614.915
736.707	616.395
737.842	618.057
738.977	619.458
740.111	621.384
741.246	623.165
742.379	623.344
743.513	623.307
744.646	623.171
745.779	622.861
746.911	622.334
748.044	621.632
749.176	620.913
750.308	620.083
751.44	618.963
752.571	617.604
753.702	615.633
754.833	613.013
755.963	608.988
757.093	604.264
758.223	600.102
759.353	595.561
760.481	591.562
761.61	587.875
762.74	584.314
763.867	581.513
764.996	578.746
766.124	575.409
767.251	573.099
768.378	571.117
769.505	569.699
770.631	568.417
771.758	567.146
772.884	568.424
774.01	566.795
775.136	564.678
776.261	562.286
777.386	559.291
778.51	557.422
779.634	555.984
780.758	555.859
781.882	555.086
783.006	553.453
784.129	551.923
785.252	551.547
786.375	551.849
787.497	553.239
788.619	552.598
789.741	551.445
790.862	550.094
791.983	548.084
793.104	546.003
794.225	544.743
795.345	543.753
796.465	542.807
797.585	542.062
798.704	541.584
799.823	542.138
800.943	539.813
802.061	537.055
803.179	533.115
804.297	529.395
805.415	526.164
806.532	523.44
807.649	521.183
808.766	519.507
809.883	518.793
810.999	519.092
812.115	521.225
813.231	520.268
814.346	519.808
815.461	520.624
816.577	520.711
817.691	520.741
818.805	520.537
819.919	520.788
821.033	519.613
822.146	519.207
823.259	517.929
824.372	515.904
825.485	513.56
826.597	512.92
827.709	512.327
828.82	512.134
829.932	512.795
831.043	512.695
832.154	512.466
833.265	511.451
834.375	509.727
835.484	508.128
836.594	507.175
837.704	506.655
838.813	506.054
839.922	505.321
841.03	504.369
842.138	503.412
843.246	502.459
844.354	501.372
845.461	500.227
846.568	498.951
847.675	497.083
848.782	495.091
849.888	494.232
850.994	493.55
852.1	493.411
853.205	493.271
854.31	493.001
855.415	492.62
856.52	491.697
857.624	489.171
858.727	487.37
859.831	485.074
860.935	483.504
862.038	482.102
863.141	480.983
864.243	481.517
865.345	480.614
866.448	478.382
867.549	475.002
868.651	472.83
869.751	471.603
870.852	471.388
871.953	471.403
873.053	470.346
874.153	468.246
875.253	467.482
876.352	466.785
877.451	467.807
878.55	468.242
879.648	468.064
880.747	467.109
881.845	464.491
882.943	463.61
884.039	462.934
885.137	462.493
886.233	462.047
887.33	461.63
888.426	461.292
889.522	460.91
890.618	459.393
891.713	457.953
892.808	456.789
893.903	455.712
894.998	454.93
896.092	453.78
897.186	452.188
898.28	453.037
899.374	453.695
900.467	452.894
901.559	452.377
902.652	452.005
903.744	451.907
904.836	452.083
905.927	452.583
907.019	454.053
908.111	455.61
909.201	456.941
910.291	458.081
911.382	457.571
912.472	456.625
913.562	455.531
914.651	451.182
915.741	450.119
916.829	451.778
917.918	452.533
919.006	453.281
920.094	451.973
921.181	448.325
922.269	444.53
923.356	440.552
924.443	436.355
925.53	432.252
926.616	428.551
927.702	425.721
928.788	424.912
929.873	424.14
930.958	424.068
932.044	424.507
933.128	424.912
934.212	424.704
935.296	422.578
936.38	421.246
937.463	420.409
938.547	420.235
939.63	419.015
940.712	416.957
941.795	414.679
942.876	412.589
943.958	411.038
945.039	410.676
946.121	410.138
947.202	409.404
948.282	408.808
949.363	408.906
950.443	409.15
951.522	407.396
952.602	405.544
953.681	402.335
954.76	399.679
955.839	397.326
956.917	395.652
957.995	394.729
959.073	395.313
960.151	395.391
961.228	395.07
962.305	395.205
963.381	395.827
964.458	397.772
965.534	398.918
966.61	401.247
967.685	403.926
968.76	404.912
969.836	405.471
970.91	405.449
971.984	404.516
973.059	404.658
974.133	401.866
975.206	398.832
976.279	395.529
977.352	394.221
978.425	394.895
979.497	398.282
980.57	401.468
981.642	403.547
982.714	404.825
983.785	406.687
984.856	408.54
985.927	410.147
986.997	411.432
988.067	411.887
989.137	411.616
990.206	411.037
991.276	409.931
992.345	408.645
993.413	407.31
994.482	405.34
995.55	403.077
996.619	401.089
997.686	400.123
998.754	399.659
999.821	399.342
1000.89	398.539
1001.95	398.051
1003.02	398.051
1004.09	398.171
1005.15	395.781
1006.22	393.063
1007.28	389.763
1008.35	386.247
1009.41	382.697
1010.48	379.392
1011.54	374.592
1012.6	372.065
1013.67	370.469
1014.73	368.269
1015.79	366.681
1016.86	363.779
1017.92	361.411
1018.98	359.912
1020.04	359.484
1021.1	360.21
1022.16	359.852
1023.23	359.72
1024.29	358.447
1025.35	356.714
1026.41	354.382
1027.47	352.048
1028.53	349.242
1029.58	347.661
1030.64	346.857
1031.7	346.884
1032.76	347.253
1033.82	347.866
1034.88	348.095
1035.93	348.499
1036.99	348.674
1038.05	347.307
1039.11	346.586
1040.16	345.795
1041.22	345.748
1042.27	345.392
1043.33	346.014
1044.38	346.275
1045.44	346.093
1046.49	345.868
1047.55	346.895
1048.6	347.622
1049.66	346.806
1050.71	345.713
1051.76	345.233
1052.82	344.504
1053.87	343.552
1054.92	342.967
1055.97	341.762
1057.03	340.203
1058.08	337.651
1059.13	336.276
1060.18	335.103
1061.23	334.247
1062.28	333.526
1063.33	332.913
1064.38	331.974
1065.43	331.072
1066.48	330.551
1067.53	330.302
1068.58	330.383
1069.63	330.404
1070.68	330.116
1071.72	330.159
1072.77	330.332
1073.82	330.496
1074.87	330.145
1075.91	329.79
1076.96	329.399
1078.01	327.883
1079.05	325.966
1080.1	326.822
1081.14	325.582
1082.19	324.153
1083.23	322.739
1084.28	321.478
1085.32	320.496
1086.37	319.58
1087.41	318.917
1088.46	318.39
1089.5	317.923
1090.54	317.733
1091.58	317.643
1092.63	317.594
1093.67	317.539
1094.71	317.511
1095.75	316.799
1096.79	315.914
1097.83	315.298
1098.88	315.335
1099.92	314.388
1100.96	313.719
1102	312.958
1103.04	312.464
1104.08	311.63
1105.11	311.718
1106.15	312.353
1107.19	312.956
1108.23	313.579
1109.27	314.476
1110.31	314.856
1111.34	315.767
1112.38	315.775
1113.42	316.572
1114.45	316.871
1115.49	316.869
1116.53	315.855
1117.56	314.735
1118.6	313.649
1119.63	312.543
1120.67	311.929
1121.7	311.227
1122.74	310.289
1123.77	308.362
1124.81	305.549
1125.84	302.913
1126.87	300.81
1127.91	299.485
1128.94	298.769
1129.97	298.628
1131	299.145
1132.04	300.311
1133.07	302.366
1134.1	304.939
1135.13	308.061
1136.16	311.451
1137.19	312.898
1138.22	314.761
1139.25	315.992
1140.28	316.943
1141.31	318.071
1142.34	318.959
1143.37	319.738
1144.4	319.889
1145.42	321.073
1146.45	320.742
1147.48	322.78
1148.51	323.518
1149.53	326.982
1150.56	330.669
1151.59	334.479
1152.62	338.13
1153.64	341.835
1154.67	344.819
1155.69	347.654
1156.72	351.813
1157.74	352.97
1158.77	352.884
1159.79	349.276
1160.82	344.643
1161.84	338.509
1162.86	330.782
1163.89	320.935
1164.91	314.452
1165.93	308.191
1166.96	302.434
1167.98	298.404
1169	294.772
1170.02	296.339
1171.04	295.183
1172.06	295.749
1173.09	295.807
1174.11	296.128
1175.13	296.861
1176.15	298.625
1177.17	299.978
1178.18	301.538
1179.2	302.765
1180.22	303.338
1181.24	303.169
1182.26	303.237
1183.28	302.601
1184.3	303.042
1185.31	302.568
1186.33	302.431
1187.35	302.14
1188.37	301.314
1189.38	300.034
1190.4	297.916
1191.41	295.266
1192.43	292.666
1193.44	290.285
1194.46	287.865
1195.48	284.985
1196.49	282.265
1197.5	280.075
1198.52	278.14
1199.53	275.699
1200.54	274.005
1201.56	272.795
1202.57	272.126
1203.58	272.486
1204.6	273.342
1205.61	273.905
1206.62	274.25
1207.63	275.631
1208.64	276.556
1209.65	277.454
1210.66	278.074
1211.67	277.555
1212.68	277.93
1213.69	277.778
1214.7	277.659
1215.71	277.914
1216.72	278.127
1217.73	278.266
1218.74	277.503
1219.75	277.289
1220.76	277.756
1221.76	278.735
1222.77	279.724
1223.78	280.776
1224.79	280.893
1225.79	280.342
1226.8	279.685
1227.8	278.751
1228.81	276.861
1229.82	275.551
1230.82	274.55
1231.83	273.352
1232.83	271.178
1233.84	269.303
1234.84	267.379
1235.84	265.407
1236.85	263.18
1237.85	261.163
1238.85	259.423
1239.86	258.19
1240.86	256.606
1241.86	255.294
1242.86	253.249
1243.86	251.5
1244.87	249.94
1245.87	247.823
1246.87	245.471
1247.87	243.358
1248.87	242.134
1249.87	241.504
1250.87	240.344
1251.87	238.796
1252.87	237.762
1253.87	237.071
1254.86	236.638
1255.86	236.722
1256.86	236.545
1257.86	236.856
1258.86	236.979
1259.85	237.065
1260.85	237.313
1261.85	237.279
1262.84	236.762
1263.84	236.85
1264.84	235.892
1265.83	234.793
1266.83	234.332
1267.82	233.921
1268.82	233.504
1269.81	232.608
1270.81	231.551
1271.8	230.458
1272.8	229.841
1273.79	229.134
1274.78	229.021
1275.77	229.779
1276.77	230.429
1277.76	231.347
1278.75	232.718
1279.74	234.027
1280.74	235.083
1281.73	236.434
1282.72	237.277
1283.71	238.654
1284.7	238.663
1285.69	239.208
1286.68	239.068
1287.67	236.771
1288.66	235.806
1289.65	235.831
1290.64	234.221
1291.63	232.884
1292.61	231.768
1293.6	230.692
1294.59	230.069
1295.58	226.592
1296.56	224.497
1297.55	222.638
1298.54	221.781
1299.52	221.566
1300.51	221.875
1301.5	222.515
1302.48	223.206
1303.47	224.36
1304.45	224.264
1305.44	224.096
1306.42	224.265
1307.41	224.385
1308.39	224.281
1309.37	223.862
1310.36	223.317
1311.34	222.208
1312.32	221.501
1313.31	220.816
1314.29	220.031
1315.27	219.699
1316.25	220.008
1317.23	219.888
1318.22	219.62
1319.2	220.413
1320.18	220.933
1321.16	221.715
1322.14	223.242
1323.12	228.151
1324.1	235.046
1325.08	242.662
1326.06	245.56
1327.04	247.255
1328.01	247.202
1328.99	246.031
1329.97	243.653
1330.95	240.258
1331.93	235.48
1332.9	232.144
1333.88	228.775
1334.86	225.358
1335.83	221.787
1336.81	218.352
1337.79	215.232
1338.76	212.725
1339.74	210.947
1340.71	209.631
1341.69	208.878
1342.66	208.29
1343.64	207.744
1344.61	206.923
1345.58	205.865
1346.56	205.514
1347.53	205.488
1348.5	205.091
1349.48	204.557
1350.45	204.872
1351.42	204.943
1352.39	204.357
1353.36	203.677
1354.34	202.942
1355.31	201.819
1356.28	200.424
1357.25	199.093
1358.22	198.466
1359.19	198.043
1360.16	197.708
1361.13	197.4
1362.1	197.079
1363.07	195.883
1364.03	193.946
1365	192.749
1365.97	191.886
1366.94	190.329
1367.91	188.492
1368.87	188.198
1369.84	188.482
1370.81	189.654
1371.77	194.387
1372.74	189.418
1373.71	186.83
1374.67	189.523
1375.64	194.141
1376.6	195.362
1377.57	194.746
1378.53	194.183
1379.5	194.026
1380.46	193.975
1381.42	193.654
1382.39	192.731
1383.35	192.045
1384.31	191.839
1385.28	191.689
1386.24	191.388
1387.2	191.391
1388.16	190.903
1389.13	191.208
1390.09	191.828
1391.05	193.476
1392.01	193.225
1392.97	190.506
1393.93	188.085
1394.89	185.409
1395.85	183.352
1396.81	182.638
1397.77	183
1398.73	184.231
1399.69	183.162
1400.64	180.789
1401.6	178.692
1402.56	177.046
1403.52	175.904
1404.48	180.355
1405.43	180.414
1406.39	179.867
1407.35	179.385
1408.3	178.821
1409.26	178.269
1410.22	177.465
1411.17	176.294
1412.13	175.557
1413.08	174.284
1414.04	173.09
1414.99	172.314
1415.94	171.363
1416.9	170.859
1417.85	170.694
1418.81	170.278
1419.76	170.439
1420.71	170.51
1421.66	170.821
1422.62	171.234
1423.57	171.544
1424.52	172.299
1425.47	172.65
1426.42	173.677
1427.37	174.891
1428.33	176.007
1429.28	176.662
1430.23	177.146
1431.18	177.756
1432.13	178.192
1433.07	179.173
1434.02	179.713
1434.97	181.169
1435.92	182.496
1436.87	184.045
1437.82	184.434
1438.77	184.842
1439.71	185.64
1440.66	186.376
1441.61	185.966
1442.55	184.99
1443.5	183.357
1444.45	181.378
1445.39	179.959
1446.34	178.992
1447.28	177.776
1448.23	175.629
1449.18	174.108
1450.12	172.418
1451.06	170.547
1452.01	168.373
1452.95	166.332
1453.9	165.015
1454.84	163.626
1455.78	163.249
1456.72	162.979
1457.67	163.058
1458.61	163.38
1459.55	163.611
1460.49	163.165
1461.43	162.981
1462.38	163.082
1463.32	162.697
1464.26	161.336
1465.2	160.281
1466.14	159.948
1467.08	159.892
1468.02	160.093
1468.96	160.673
1469.9	161.679
1470.83	162.628
1471.77	162.461
1472.71	162.531
1473.65	162.522
1474.59	163.331
1475.53	164.121
1476.46	164.425
1477.4	164.057
1478.34	164.063
1479.27	163.387
1480.21	163.111
1481.14	163.125
1482.08	163.217
1483.02	162.964
1483.95	162.813
1484.89	162.557
1485.82	162.22
1486.75	161.834
1487.69	161.511
1488.62	161.651
1489.56	161.575
1490.49	161.307
1491.42	161.338
1492.35	161.84
1493.29	162.431
1494.22	161.992
1495.15	161.383
1496.08	160.493
1497.01	160.05
1497.95	159.264
1498.88	158.537
1499.81	157.779
1500.74	157.22
1501.67	156.12
1502.6	154.944
1503.53	154.801
1504.46	155.136
1505.39	154.589
1506.31	154.303
1507.24	154.663
1508.17	154.459
1509.1	155.431
1510.03	156.508
1510.95	157.949
1511.88	159.505
1512.81	162.422
1513.74	166.899
1514.66	171.877
1515.59	177.399
1516.51	183.052
1517.44	188.974
1518.37	194.312
1519.29	199.419
1520.22	204.41
1521.14	208.638
1522.06	212.651
1522.99	215.22
1523.91	217.108
1524.84	218.143
1525.76	217.759
1526.68	217.813
1527.61	217.615
1528.53	217.198
1529.45	216.096
1530.37	214.374
1531.29	212.22
1532.21	209.345
1533.14	205.887
1534.06	201.826
1534.98	197.312
1535.9	193.528
1536.82	189.994
1537.74	186.473
1538.66	182.057
1539.58	177.387
1540.5	173.364
1541.42	169.899
1542.33	166.847
1543.25	164.625
1544.17	163.102
1545.09	162.657
1546.01	162.02
1546.92	161.625
1547.84	161.443
1548.76	161.184
1549.67	161.05
1550.59	160.98
1551.51	161.02
1552.42	161.151
1553.34	161.169
1554.25	160.606
1555.17	160.011
1556.08	159.061
1557	158.119
1557.91	157.114
1558.82	156.188
1559.74	154.934
1560.65	153.934
1561.56	152.254
1562.48	150.154
1563.39	148.102
1564.3	146.475
1565.21	144.973
1566.13	143.548
1567.04	142.101
1567.95	140.663
1568.86	139.379
1569.77	138.273
1570.68	137.273
1571.59	136.423
1572.5	135.894
1573.41	135.355
1574.32	134.52
1575.23	134.06
1576.14	133.909
1577.05	133.51
1577.95	133.945
1578.86	134.553
1579.77	135.128
1580.68	135.244
1581.59	135.547
1582.49	136.175
1583.4	136.828
1584.31	137.499
1585.21	138.14
1586.12	138.738
1587.02	138.947
1587.93	138.57
1588.84	135.936
1589.74	134.913
1590.65	134.302
1591.55	133.997
1592.45	134.029
1593.36	134.879
1594.26	135.633
1595.17	136.485
1596.07	138.181
1596.97	139.481
1597.87	140.225
1598.78	140.905
1599.68	141.617
1600.58	142.051
1601.48	141.448
1602.38	141.215
1603.29	140.978
1604.19	141.636
1605.09	142.422
1605.99	142.982
1606.89	143.392
1607.79	143.916
1608.69	143.871
1609.59	143.268
1610.49	142.532
1611.38	142.306
1612.28	141.891
1613.18	141.199
1614.08	140.552
1614.98	139.641
1615.87	138.53
1616.77	137.221
1617.67	136.208
1618.57	135.426
1619.46	134.656
1620.36	133.857
1621.25	133.241
1622.15	132.738
1623.05	132.135
1623.94	131.594
1624.84	131.099
1625.73	130.599
1626.62	130.307
1627.52	129.827
1628.41	129.677
1629.31	130.082
1630.2	130.316
1631.09	129.961
1631.99	129.601
1632.87	129.352
1633.8	128.56
1634.73	128.018
1635.65	127.585
1636.58	127.227
1637.51	126.858
1638.44	126.24
1639.37	125.975
1640.29	125.948
1641.22	125.797
1642.15	125.962
1643.08	126.45
1644	126.782
1644.93	127.671
1645.85	128.374
1646.78	128.691
1647.71	128.748
1648.63	128.261
1649.56	128.33
1650.48	128.331
1651.41	126.775
1652.33	125.112
1653.26	123.607
1654.18	122.335
1655.1	121.656
1656.03	121.294
1656.95	121.312
1657.87	121.652
1658.8	122.163
1659.72	121.991
1660.64	121.281
1661.56	120.88
1662.49	120.149
1663.41	119.714
1664.33	119.408
1665.25	118.389
1666.17	117.634
1667.09	117.411
1668.02	117.423
1668.94	117.589
1669.86	117.98
1670.78	118.641
1671.7	119.144
1672.62	119.842
1673.53	120.481
1674.45	120.831
1675.37	120.932
1676.29	121.541
1677.21	122.19
1678.13	122.284
1679.05	122.396
1679.96	122.488
1680.88	122.293
1681.8	122.104
1682.72	121.131
1683.63	120.33
1684.55	120.116
1685.47	119.839
1686.38	119.99
1687.3	119.807
1688.21	119.292
1689.13	118.102
1690.05	116.675
1690.96	115.228
1691.87	113.685
1692.79	112.493
1693.7	111.24
1694.62	110.33
1695.53	109.692
1696.45	108.836
1697.36	108.16
1698.27	107.707
1699.19	107.475
1700.1	107.728
1701.01	107.602
1701.92	107.702
1702.84	107.77
1703.75	108.028
1704.66	108.248
1705.57	108.059
1706.48	106.602
1707.39	105.78
1708.3	105.404
1709.21	105.903
1710.12	106.412
1711.03	106.706
1711.95	107.07
1712.85	107.41
1713.76	107.74
1714.67	108.11
1715.58	108.364
1716.49	108.612
1717.4	108.705
1718.31	108.733
1719.22	108.607
1720.12	108.377
1721.03	108.027
1721.94	107.465
1722.85	107.104
1723.75	106.987
1724.66	107.21
1725.57	106.627
1726.47	106.266
1727.38	105.849
1728.28	105.879
1729.19	105.573
1730.1	104.836
1731	104.112
1731.91	103.656
1732.81	103.212
1733.71	103.178
1734.62	103.064
1735.52	103.73
1736.43	104.787
1737.33	105.517
1738.23	105.13
1739.14	104.724
1740.04	104.296
1740.94	103.881
1741.85	103.489
1742.75	103.112
1743.65	102.814
1744.55	102.55
1745.45	102.356
1746.35	102.246
1747.26	102.184
1748.16	102.215
1749.06	102.288
1749.96	102.434
1750.86	102.65
1751.76	102.972
1752.66	103.32
1753.56	103.773
1754.46	104.209
1755.36	104.652
1756.25	105.271
1757.15	104.999
1758.05	104.196
1758.95	103.111
1759.85	101.42
1760.75	100.024
1761.64	98.9598
1762.54	98.1523
1763.44	97.4843
1764.33	98.8798
1765.23	98.252
1766.13	97.9465
1767.02	97.3671
1767.92	96.3538
1768.82	95.7922
1769.71	95.4969
1770.61	95.4422
1771.5	95.6794
1772.4	96.0475
1773.29	96.3837
1774.19	96.4005
1775.08	96.4947
1775.97	97.1162
1776.87	97.6088
1777.76	97.6734
1778.65	98.0893
1779.55	97.9328
1780.44	97.743
1781.33	97.0505
1782.23	96.3415
1783.12	95.5897
1784.01	94.6083
1784.9	93.2042
1785.79	92.1739
1786.68	91.2388
1787.58	90.162
1788.47	89.4423
1789.36	89.152
1790.25	89.2623
1791.14	89.003
1792.03	88.9816
1792.92	89.1529
1793.81	89.5298
1794.7	89.7218
1795.58	89.9412
1796.47	90.7882
1797.36	92.4439
1798.25	92.7956
1799.14	92.496
