Acq. time (s)=	15
Accumulations=	2
Range (cm-¹)=	600...1800
Windows=	2
Autofocus=	Off
AutoExposure=	Off
Spike filter=	Multiple accum.
Delay time (s)=	1
Binning=	1
Readout mode=	Signal
DeNoise=	Standard
ICS correction=	Off
Dark correction=	Off
Inst. Process=	Off
Instrument=	XploRA
Detector=	Syncerity
Objective=	x20LWD
Grating=	1200 gr/mm
Filter=	25%
Laser (nm)=	785 
Slit (µm)=	100 
Hole (µm)=	300 
Laser pol=	None
Raman pol=	None
Output=	Camera
StageXY=	Marzhauser
StageZ=	
X (µm)=	-5038.7
Y (µm)=	-4294.6
Project=	
Sample=	
Site=	
Title=	Cmm1 s-t
Remark=	
Date=	22.07.2022 01:53
Acquired=	22.07.2022 01:53:36
600.839	1624.27
602.009	1642.27
603.178	1659.19
604.347	1679.6
605.516	1698.19
606.684	1717.23
607.852	1735.29
609.02	1752.92
610.187	1769.39
611.355	1785.09
612.521	1799.35
613.688	1814.45
614.854	1833.08
616.02	1852.24
617.185	1871.32
618.351	1890.05
619.516	1908.51
620.681	1926.56
621.846	1944.01
623.009	1960.87
624.174	1977.12
625.337	1993.31
626.501	2008.16
627.664	2020.61
628.826	2029.13
629.988	2036.84
631.151	2039.31
632.313	2040.17
633.474	2039.43
634.635	2038.71
635.797	2038.13
636.958	2038.21
638.117	2040.47
639.278	2045.64
640.437	2064.56
641.597	2070.91
642.756	2074.32
643.915	2077.9
645.074	2081.36
646.233	2085.35
647.391	2089.52
648.548	2093.9
649.706	2099.08
650.863	2104.3
652.02	2109.49
653.176	2114.61
654.333	2119.26
655.489	2121.85
656.645	2124.5
657.8	2129.12
658.955	2135.62
660.11	2142.31
661.264	2149.12
662.419	2155.89
663.573	2162.51
664.727	2168.99
665.88	2175.43
667.033	2181.93
668.186	2188.34
669.338	2194.79
670.491	2201.16
671.643	2207.42
672.794	2213.61
673.945	2219.57
675.096	2225.23
676.247	2230.78
677.398	2236.31
678.548	2241.81
679.698	2247.04
680.847	2252.22
681.997	2256.29
683.146	2259
684.294	2261.93
685.443	2265.22
686.591	2268.72
687.739	2272.08
688.887	2275.56
690.034	2278.88
691.181	2281.75
692.328	2284.19
693.474	2285.96
694.62	2285.67
695.766	2284.44
696.911	2283.23
698.057	2282.52
699.202	2282.39
700.346	2282.16
701.49	2281.34
702.635	2276.69
703.779	2272.72
704.922	2270.31
706.065	2268.78
707.208	2267.92
708.351	2267.54
709.493	2267.34
710.635	2267.4
711.776	2268.55
712.918	2269.9
714.059	2271.52
715.2	2271.1
716.341	2269.8
717.481	2268.36
718.621	2266.63
719.761	2264.65
720.9	2261.08
722.04	2256.68
723.178	2252.17
724.317	2248.08
725.455	2244.56
726.594	2241.88
727.731	2240.55
728.868	2239.08
730.005	2238.82
731.142	2239.99
732.279	2243.13
733.415	2247.5
734.551	2254.07
735.686	2262.72
736.822	2272.71
737.957	2283.97
739.092	2293.69
740.226	2301.77
741.36	2307.61
742.495	2311.09
743.628	2312.3
744.762	2310.91
745.895	2307.16
747.027	2300.66
748.16	2290.06
749.292	2279.12
750.423	2270.06
751.555	2263.49
752.686	2257.47
753.817	2251.64
754.949	2244.88
756.079	2236.45
757.209	2227.85
758.339	2219.02
759.469	2210.17
760.597	2201.65
761.727	2193.4
762.856	2185.21
763.984	2177.18
765.112	2170.11
766.24	2163.36
767.367	2157.17
768.494	2150.96
769.622	2144.14
770.749	2137.81
771.874	2132.04
773.001	2126.29
774.127	2121.64
775.253	2116.95
776.377	2112.09
777.503	2106.62
778.627	2100.07
779.751	2093.41
780.876	2086.78
782	2078.85
783.123	2070.65
784.246	2062.3
785.37	2054.38
786.492	2048.21
787.614	2041.98
788.737	2036.26
789.858	2029.91
790.979	2022.4
792.101	2014.45
793.222	2008.82
794.342	2010.91
795.463	2005.77
796.583	2000.15
797.702	1994.74
798.822	1989.5
799.942	1984.09
801.06	1978.65
802.179	1973.36
803.297	1968.35
804.415	1963.88
805.533	1959.9
806.651	1956.62
807.768	1954.2
808.885	1953.18
810.001	1952.89
811.118	1953.44
812.233	1954.46
813.349	1955.66
814.464	1956.08
815.58	1956.8
816.695	1958.32
817.809	1959.71
818.924	1960.89
820.038	1961.37
821.152	1960.98
822.265	1959.15
823.378	1956.8
824.491	1953.75
825.604	1950.15
826.716	1946.03
827.828	1941.34
828.94	1936.07
830.051	1930.47
831.162	1924.67
832.273	1918.65
833.383	1912.68
834.494	1907.34
835.604	1903.21
836.714	1900.27
837.823	1899.39
838.932	1899.24
840.041	1899.63
841.15	1900.05
842.258	1902.11
843.366	1904.1
844.474	1905.72
845.581	1906.76
846.688	1906.52
847.795	1904.87
848.901	1901.88
850.008	1897.87
851.115	1893.09
852.22	1887.9
853.325	1882.5
854.43	1877.53
855.536	1872.54
856.64	1867.83
857.745	1862.53
858.848	1857.17
859.952	1851.85
861.055	1846.34
862.158	1841.2
863.261	1836.31
864.364	1831.93
865.466	1827.69
866.568	1823.64
867.67	1819.25
868.771	1814.74
869.873	1809.94
870.973	1804.11
872.074	1798.47
873.174	1792.11
874.274	1785.45
875.374	1778.77
876.473	1772.38
877.572	1766.27
878.671	1762.05
879.77	1755.79
880.868	1749.97
881.966	1744.45
883.064	1740.99
884.161	1738.67
885.258	1737.52
886.356	1737.39
887.452	1738.94
888.548	1741.24
889.645	1744.17
890.74	1747.1
891.836	1749.34
892.931	1751.01
894.025	1752.32
895.12	1751.8
896.214	1749.77
897.308	1747.41
898.402	1744.94
899.495	1743.17
900.588	1741.11
901.681	1739.25
902.774	1737.61
903.866	1737.19
904.958	1738.37
906.05	1740
907.142	1741.86
908.233	1743
909.324	1744.77
910.414	1746.61
911.504	1748.94
912.594	1751.17
913.684	1753.28
914.774	1754.99
915.863	1751.82
916.952	1745.9
918.041	1738.51
919.129	1731.05
920.217	1723.2
921.305	1714.9
922.392	1706.63
923.48	1698.28
924.567	1689.78
925.653	1681.4
926.74	1673.33
927.825	1665.94
928.911	1659.4
929.997	1653.52
931.082	1649.38
932.166	1645.92
933.252	1642.93
934.336	1638.89
935.42	1634.52
936.504	1629.73
937.587	1624.44
938.671	1619.22
939.753	1614.11
940.836	1610.71
941.919	1606.71
943	1604.02
944.082	1606.75
945.163	1607.66
946.245	1608.61
947.326	1607.94
948.406	1606.46
949.487	1603.99
950.567	1601.01
951.647	1597.8
952.727	1594.56
953.805	1591.78
954.885	1588.93
955.964	1586.6
957.042	1584.57
958.12	1582.94
959.198	1581.45
960.276	1579.82
961.352	1578.1
962.43	1571.9
963.507	1566.01
964.583	1560.44
965.659	1555.11
966.735	1550.28
967.81	1546.39
968.885	1543.03
969.961	1543.4
971.036	1576.27
972.11	1577.22
973.184	1572.74
974.258	1555.7
975.332	1554.17
976.405	1524.57
977.478	1516.01
978.551	1551.84
979.624	1543.44
980.696	1568.37
981.767	1580.89
982.839	1609.6
983.911	1622.15
984.982	1623.88
986.052	1622.93
987.123	1615.59
988.193	1606.51
989.263	1594.54
990.333	1583.9
991.403	1579.15
992.471	1575.19
993.54	1570.9
994.608	1566.88
995.677	1562.91
996.745	1559.33
997.812	1555.99
998.88	1553.12
999.947	1550.79
1001.01	1548.48
1002.08	1547.17
1003.15	1545.57
1004.21	1543.29
1005.28	1537.19
1006.34	1528.92
1007.41	1520
1008.47	1510.75
1009.54	1502.81
1010.6	1494.95
1011.67	1488.01
1012.73	1481.38
1013.79	1474.77
1014.86	1468.17
1015.92	1461.41
1016.98	1453.83
1018.05	1446.06
1019.11	1437.83
1020.17	1429.47
1021.23	1421.39
1022.29	1415.15
1023.35	1409.26
1024.41	1403.89
1025.47	1398.76
1026.53	1393.69
1027.59	1389.79
1028.65	1386.63
1029.71	1383.94
1030.77	1381.83
1031.83	1380.1
1032.89	1378.44
1033.95	1376.83
1035	1375.48
1036.06	1374.71
1037.12	1374.33
1038.18	1374.37
1039.23	1374.88
1040.29	1376.3
1041.35	1378.19
1042.4	1380.38
1043.46	1382.57
1044.51	1384.78
1045.57	1386.41
1046.62	1386.99
1047.68	1388.15
1048.73	1389.13
1049.79	1389.51
1050.84	1389.34
1051.89	1388.41
1052.95	1386.28
1054	1382.45
1055.05	1378.29
1056.1	1373.02
1057.16	1367.23
1058.21	1361.08
1059.26	1355.12
1060.31	1350.09
1061.36	1345.98
1062.41	1342.78
1063.46	1340.13
1064.51	1338.5
1065.56	1337.61
1066.61	1337.67
1067.66	1338.98
1068.71	1340.13
1069.76	1341.05
1070.81	1339.77
1071.85	1338.73
1072.9	1336.67
1073.95	1333.96
1075	1330.23
1076.04	1325.46
1077.09	1316.44
1078.14	1312.77
1079.18	1308.19
1080.23	1303.27
1081.27	1298.24
1082.32	1294.44
1083.36	1290.96
1084.41	1288.16
1085.45	1285.78
1086.5	1283.18
1087.54	1280.31
1088.59	1277.42
1089.63	1275.35
1090.67	1273.6
1091.71	1273.04
1092.76	1274.16
1093.8	1275.91
1094.84	1278.17
1095.88	1280.62
1096.92	1282.99
1097.97	1284.52
1099.01	1285.92
1100.05	1286.74
1101.09	1286.94
1102.13	1287.09
1103.17	1287.07
1104.21	1286.81
1105.25	1286.45
1106.28	1285.23
1107.32	1283.61
1108.36	1280.85
1109.4	1277.63
1110.44	1274.38
1111.47	1271.05
1112.51	1267.72
1113.55	1264.72
1114.59	1261.73
1115.62	1258.78
1116.66	1256.06
1117.69	1253.5
1118.73	1250.93
1119.77	1248.41
1120.8	1245.94
1121.84	1243.46
1122.87	1241.08
1123.9	1238.88
1124.94	1236.85
1125.97	1235.09
1127	1233.64
1128.04	1233.02
1129.07	1232.65
1130.1	1232.68
1131.13	1232.96
1132.17	1233.22
1133.2	1234.28
1134.23	1236.45
1135.26	1240.11
1136.29	1246.81
1137.32	1255.52
1138.35	1265.38
1139.38	1275.58
1140.41	1284.57
1141.44	1292.15
1142.47	1298.91
1143.5	1303.84
1144.53	1306.75
1145.56	1306.16
1146.59	1306.86
1147.61	1308.62
1148.64	1312.58
1149.67	1319.55
1150.7	1327.48
1151.72	1336
1152.75	1343.16
1153.77	1350.01
1154.8	1357.26
1155.83	1365.83
1156.85	1370.85
1157.88	1370.42
1158.9	1382.91
1159.93	1366.92
1160.95	1346.98
1161.97	1323.23
1163	1295.59
1164.02	1267.45
1165.04	1243.38
1166.07	1222.22
1167.09	1205.48
1168.11	1193.32
1169.13	1185.75
1170.16	1190.13
1171.18	1187.86
1172.2	1186.23
1173.22	1187.42
1174.24	1189.48
1175.26	1192.04
1176.28	1193.64
1177.3	1196.04
1178.32	1193.85
1179.34	1196.6
1180.36	1201.16
1181.38	1208.04
1182.4	1214.98
1183.41	1221.12
1184.43	1227.81
1185.45	1233.58
1186.47	1237.73
1187.48	1238.81
1188.5	1237.77
1189.52	1234.72
1190.53	1229.21
1191.55	1221.49
1192.56	1213.63
1193.58	1204.61
1194.59	1194.05
1195.61	1182.87
1196.62	1171.6
1197.64	1160.2
1198.65	1149.44
1199.67	1139.98
1200.68	1131.54
1201.69	1124.07
1202.71	1118.08
1203.72	1113.65
1204.73	1110.61
1205.74	1108.97
1206.76	1108.47
1207.77	1109.09
1208.78	1110.67
1209.79	1113.46
1210.8	1117.67
1211.81	1122.58
1212.82	1127
1213.83	1128.24
1214.84	1128.37
1215.85	1128.12
1216.86	1127.26
1217.87	1125.99
1218.88	1124.77
1219.88	1123.54
1220.89	1122.23
1221.9	1121.02
1222.91	1120.52
1223.92	1120.51
1224.92	1120.51
1225.93	1120.02
1226.93	1118.94
1227.94	1116.48
1228.95	1113.43
1229.95	1109.73
1230.96	1105.3
1231.96	1100.09
1232.97	1093.6
1233.97	1086.21
1234.98	1078.77
1235.98	1071.61
1236.98	1065.95
1237.99	1061.19
1238.99	1057.44
1239.99	1054.74
1241	1053.45
1242	1052.92
1243	1053.42
1244	1052.6
1245	1050.88
1246	1048.38
1247.01	1045.32
1248.01	1041.64
1249.01	1037.42
1250.01	1032.83
1251.01	1027.84
1252.01	1022.55
1253	1017.23
1254	1011.93
1255	1006.66
1256	1001.66
1257	997.032
1258	993.134
1258.99	989.917
1259.99	987.526
1260.99	986.283
1261.99	986.497
1262.98	988.868
1263.98	993.349
1264.98	999.618
1265.97	1006.66
1266.97	1012.58
1267.96	1016.67
1268.96	1017.6
1269.95	1006.19
1270.95	996.084
1271.94	986.698
1272.93	978.737
1273.93	971.874
1274.92	966.802
1275.91	963.247
1276.91	960.638
1277.9	958.294
1278.89	967.884
1279.88	971.23
1280.87	974.893
1281.87	979.566
1282.86	984.573
1283.85	989.46
1284.84	993.573
1285.83	996.721
1286.82	998.633
1287.81	999.158
1288.8	998.593
1289.79	996.467
1290.78	993.137
1291.76	988.494
1292.75	981.974
1293.74	974.407
1294.73	966.267
1295.72	959.554
1296.7	953.662
1297.69	948.683
1298.68	944.871
1299.66	942.531
1300.65	941.502
1301.64	941.849
1302.62	942.969
1303.61	944.617
1304.59	945.358
1305.58	947.299
1306.56	948.113
1307.55	943.925
1308.53	940.34
1309.51	936.973
1310.5	933.823
1311.48	930.903
1312.46	928.209
1313.45	925.812
1314.43	923.599
1315.41	921.676
1316.39	919.954
1317.38	918.472
1318.36	917.606
1319.34	917.234
1320.32	924.699
1321.3	934.2
1322.28	945.522
1323.26	956.826
1324.24	967.196
1325.22	976.801
1326.2	984.608
1327.18	990.716
1328.16	993.906
1329.13	993.481
1330.11	989.471
1331.09	979.893
1332.07	968.231
1333.04	955.072
1334.02	941.693
1335	929.46
1335.97	919.103
1336.95	909.808
1337.93	905.673
1338.9	901.214
1339.88	895.139
1340.85	889.854
1341.83	886.381
1342.8	885.64
1343.78	885.604
1344.75	884.686
1345.72	883.863
1346.7	882.77
1347.67	881.015
1348.65	879.053
1349.62	876.977
1350.59	875.257
1351.56	874.185
1352.53	874.028
1353.51	873.573
1354.48	873.152
1355.45	872.345
1356.42	871.015
1357.39	869.31
1358.36	866.857
1359.33	863.552
1360.3	859.823
1361.27	855.318
1362.24	850.666
1363.21	844.308
1364.18	837.874
1365.14	831.668
1366.11	826.512
1367.08	823.121
1368.05	820.43
1369.02	818.835
1369.98	818.799
1370.95	820.128
1371.92	821.87
1372.88	823.914
1373.85	825.407
1374.81	826.081
1375.78	826.458
1376.74	826.535
1377.71	825.74
1378.68	824.631
1379.64	823.521
1380.6	822.557
1381.57	822.263
1382.53	821.962
1383.49	821.554
1384.46	821.406
1385.42	821.819
1386.38	822.169
1387.34	822.553
1388.31	822.925
1389.27	822.641
1390.23	821.647
1391.19	819.784
1392.15	817.594
1393.11	815.026
1394.07	812.962
1395.03	811.567
1395.99	809.707
1396.95	807.426
1397.91	802.662
1398.87	797.995
1399.83	793.567
1400.79	789.816
1401.75	786.108
1402.7	782.44
1403.66	779.988
1404.62	778.148
1405.58	776.935
1406.53	775.942
1407.49	775.053
1408.45	773.651
1409.4	772.723
1410.36	771.757
1411.31	771.298
1412.27	770.798
1413.23	770.506
1414.18	770.059
1415.13	768.429
1416.09	765.988
1417.04	763.059
1418	760.914
1418.95	759.838
1419.9	759.067
1420.86	758.571
1421.81	758.188
1422.76	757.841
1423.71	757.559
1424.67	757.071
1425.62	756.818
1426.57	756.716
1427.52	756.775
1428.47	757.417
1429.42	758.362
1430.37	759.72
1431.32	761.606
1432.27	763.604
1433.22	765.607
1434.17	766.978
1435.12	769.065
1436.07	771.27
1437.02	773.264
1437.96	774.889
1438.91	775.855
1439.86	776.014
1440.81	774.929
1441.75	773.402
1442.7	771.05
1443.65	768.254
1444.59	764.671
1445.54	760.812
1446.49	756.723
1447.43	752.053
1448.38	746.926
1449.32	741.8
1450.27	736.955
1451.21	732.429
1452.15	728.552
1453.1	725.143
1454.04	722.734
1454.98	720.784
1455.93	719.303
1456.87	718.356
1457.81	718.15
1458.76	718.392
1459.7	718.721
1460.64	718.903
1461.58	718.529
1462.52	717.505
1463.46	715.979
1464.4	713.807
1465.34	710.994
1466.28	707.79
1467.22	703.86
1468.16	699.787
1469.1	695.805
1470.04	692.525
1470.98	689.805
1471.92	687.596
1472.86	686.652
1473.8	686.482
1474.73	686.9
1475.67	687.709
1476.61	688.901
1477.55	690.095
1478.48	690.779
1479.42	691.804
1480.36	692.766
1481.29	693.955
1482.23	694.844
1483.16	695.67
1484.1	696.563
1485.03	697.359
1485.97	698.868
1486.9	701.078
1487.84	703.817
1488.77	706.131
1489.7	708.089
1490.64	708.928
1491.57	709.374
1492.5	709.363
1493.44	708.071
1494.37	705.648
1495.3	702.497
1496.23	698.2
1497.16	693.393
1498.09	688.544
1499.02	684.333
1499.96	680.281
1500.89	676.893
1501.82	674.276
1502.75	672.603
1503.68	671.204
1504.61	670.597
1505.53	670.88
1506.46	672.111
1507.39	674.442
1508.32	677.942
1509.25	682.654
1510.18	689.157
1511.1	696.434
1512.03	704.606
1512.96	711.269
1513.88	721.572
1514.81	733.691
1515.74	747.462
1516.66	762.165
1517.59	777.906
1518.51	793.286
1519.44	808.115
1520.36	821.562
1521.29	833.348
1522.21	844.242
1523.14	853.411
1524.06	860.826
1524.98	866
1525.91	868.741
1526.83	868.746
1527.75	865.479
1528.68	860.433
1529.6	855.055
1530.52	848.198
1531.44	840.321
1532.36	831.37
1533.29	821.616
1534.21	811.004
1535.13	799.132
1536.05	786.408
1536.97	773.107
1537.89	757.281
1538.81	739.878
1539.73	723.677
1540.65	707.713
1541.56	692.905
1542.48	679.472
1543.4	668.134
1544.32	659.453
1545.24	652.984
1546.16	647.725
1547.07	643.36
1547.99	639.097
1548.91	635.16
1549.82	631.555
1550.74	628.306
1551.66	625.187
1552.57	621.953
1553.49	618.619
1554.4	614.874
1555.32	610.688
1556.23	606.069
1557.15	600.844
1558.06	594.678
1558.97	586.886
1559.89	578.873
1560.8	570.944
1561.71	564.09
1562.63	557.555
1563.54	551.187
1564.45	544.976
1565.36	538.775
1566.28	532.817
1567.19	527.191
1568.1	522.106
1569.01	517.618
1569.92	514.211
1570.83	511.195
1571.74	508.18
1572.65	505.741
1573.56	503.511
1574.47	501.444
1575.38	499.185
1576.29	497
1577.2	495.532
1578.11	494.118
1579.01	492.683
1579.92	491.044
1580.83	489.273
1581.74	487.265
1582.64	485.208
1583.55	483.055
1584.46	480.735
1585.36	478.055
1586.27	475.243
1587.18	472.495
1588.08	469.65
1588.99	466.88
1589.89	464.173
1590.8	461.75
1591.7	459.542
1592.61	457.848
1593.51	456.579
1594.41	455.523
1595.32	454.745
1596.22	454.174
1597.12	453.778
1598.03	453.613
1598.93	453.847
1599.83	454.166
1600.73	454.463
1601.64	454.339
1602.54	454.038
1603.44	453.689
1604.34	453.077
1605.24	452.17
1606.14	450.556
1607.04	448.655
1607.94	446.356
1608.84	443.83
1609.74	441.226
1610.64	438.63
1611.54	435.924
1612.44	433.061
1613.33	430.121
1614.23	427.036
1615.13	423.803
1616.03	420.434
1616.92	416.976
1617.82	413.419
1618.72	409.562
1619.61	405.774
1620.51	402.707
1621.41	400.2
1622.3	398.14
1623.2	396.331
1624.09	394.543
1624.99	392.25
1625.88	389.599
1626.78	386.982
1627.67	384.582
1628.57	382.501
1629.46	380.743
1630.35	379.568
1631.25	378.815
1632.14	378.149
1632.85	377.872
1633.78	378.522
1634.71	379.276
1635.64	380.326
1636.57	381.77
1637.5	383.078
1638.42	383.571
1639.35	382.844
1640.28	382.373
1641.21	381.263
1642.13	379.52
1643.06	377.494
1643.99	375.44
1644.91	373.789
1645.84	372.511
1646.77	371.539
1647.69	371.025
1648.62	371.013
1649.54	371.44
1650.47	372.218
1651.39	373.582
1652.32	375.092
1653.24	375.547
1654.17	375.773
1655.09	375.569
1656.01	375.162
1656.94	374.522
1657.86	373.69
1658.78	372.685
1659.71	371.528
1660.63	370.345
1661.55	368.998
1662.47	367.79
1663.4	366.369
1664.32	364.878
1665.24	363.343
1666.16	362.983
1667.08	362.812
1668	362.533
1668.92	361.961
1669.84	361.017
1670.76	359.788
1671.68	357.744
1672.6	355.829
1673.52	354.809
1674.44	354.167
1675.36	353.825
1676.28	354.054
1677.2	354.49
1678.12	355.084
1679.03	355.08
1679.95	355.258
1680.87	355.106
1681.79	355.63
1682.7	356.605
1683.62	357.407
1684.54	357.815
1685.45	358.014
1686.37	357.634
1687.29	356.657
1688.2	354.9
1689.12	352.151
1690.03	349.276
1690.95	346.535
1691.86	344.146
1692.78	341.949
1693.69	340.137
1694.61	338.511
1695.52	337.109
1696.43	335.878
1697.35	335.089
1698.26	334.613
1699.17	334.323
1700.09	334.202
1701	334.117
1701.91	333.861
1702.82	333.688
1703.74	333.408
1704.65	332.963
1705.56	331.703
1706.47	330.22
1707.38	328.85
1708.29	327.54
1709.2	326.664
1710.11	326.023
1711.02	325.571
1711.93	325.256
1712.84	325.143
1713.75	325.18
1714.66	325.739
1715.57	326.292
1716.48	326.841
1717.39	327.313
1718.3	327.151
1719.21	326.683
1720.11	325.964
1721.02	324.903
1721.93	323.448
1722.84	321.682
1723.74	319.049
1724.65	316.88
1725.56	315.952
1726.46	315.146
1727.37	314.466
1728.28	313.747
1729.18	313.128
1730.09	312.483
1730.99	311.923
1731.9	311.424
1732.8	310.908
1733.71	310.417
1734.61	309.884
1735.52	309.282
1736.42	308.678
1737.32	308.079
1738.23	307.566
1739.13	307.048
1740.03	306.729
1740.94	306.345
1741.84	306.18
1742.74	306.048
1743.64	306.075
1744.54	305.989
1745.45	305.751
1746.35	305.413
1747.25	304.458
1748.15	304.505
1749.05	304.399
1749.95	303.872
1750.85	303.187
1751.75	302.268
1752.65	301.283
1753.55	300.309
1754.45	299.72
1755.35	299.963
1756.25	300.38
1757.15	300.766
1758.05	300.758
1758.94	300.686
1759.84	300.469
1760.74	300.068
1761.64	299.109
1762.53	298.062
1763.43	297.004
1764.33	295.986
1765.23	295.037
1766.12	294.229
1767.02	293.524
1767.91	292.879
1768.81	292.626
1769.71	292.463
1770.6	292.418
1771.5	292.402
1772.39	292.479
1773.29	292.454
1774.18	292.545
1775.07	292.433
1775.97	292.085
1776.86	291.709
1777.76	291.244
1778.65	290.75
1779.54	290.225
1780.44	289.725
1781.33	289.204
1782.22	288.677
1783.11	288.16
1784.01	287.671
1784.9	287.213
1785.79	286.758
1786.68	286.373
1787.57	286.073
1788.46	285.653
1789.35	285.194
1790.24	284.318
1791.13	282.489
1792.02	281.646
1792.91	280.871
1793.8	280.195
1794.69	279.715
1795.58	278.815
1796.47	277.335
1797.36	274.484
1798.25	271.764
1799.14	268.775
