Acq. time (s)=	15
Accumulations=	2
Range (cm-¹)=	600...1800
Windows=	2
Autofocus=	Off
AutoExposure=	Off
Spike filter=	Multiple accum.
Delay time (s)=	1
Binning=	1
Readout mode=	Signal
DeNoise=	Standard
ICS correction=	Off
Dark correction=	Off
Inst. Process=	Off
Instrument=	XploRA
Detector=	Syncerity
Objective=	x20LWD
Grating=	1200 gr/mm
Filter=	25%
Laser (nm)=	785 
Slit (µm)=	100 
Hole (µm)=	300 
Laser pol=	None
Raman pol=	None
Output=	Camera
StageXY=	Marzhauser
StageZ=	
X (µm)=	1606.8
Y (µm)=	-5164.9
Project=	
Sample=	
Site=	
Title=	CLsoP1 f5
Remark=	
Date=	06.04.2022 11:40
Acquired=	06.04.2022 11:40:07
600.731	544.066
601.9	552.793
603.069	560.476
604.238	569.467
605.406	574.855
606.575	580.178
607.743	585.04
608.91	588.588
610.078	591.238
611.245	593.153
612.411	595.922
613.579	599.82
614.745	602.712
615.91	604.913
617.076	606.652
618.241	608.356
619.407	609.593
620.571	610.838
621.735	611.426
622.9	612.787
624.063	613.309
625.227	612.541
626.39	611.584
627.553	610.903
628.716	609.339
629.879	608.321
631.041	606.807
632.203	605.941
633.364	605.037
634.526	604.938
635.686	606.51
636.847	608.605
638.007	610.392
639.167	611.552
640.327	611.966
641.486	611.162
642.645	610.359
643.805	609.52
644.963	608.728
646.122	608.157
647.28	606.377
648.438	605.006
649.594	604.517
650.752	603.724
651.909	602.218
653.065	601.825
654.221	601.794
655.377	601.994
656.533	603.307
657.688	604.438
658.843	604.531
659.998	604.552
661.153	605.298
662.307	605.892
663.461	606.004
664.615	606.033
665.768	605.758
666.921	605.927
668.074	606.044
669.226	606.223
670.379	605.57
671.53	605.902
672.682	605.851
673.833	606.475
674.984	606.21
676.135	605.906
677.285	605.037
678.436	604.316
679.586	603.454
680.735	602.649
681.884	601.567
683.033	602.484
684.182	602.924
685.33	603.385
686.478	603.61
687.626	604.622
688.774	606.14
689.921	607.5
691.068	608.229
692.214	608.941
693.361	607.552
694.507	606.528
695.652	603.628
696.798	602.654
697.943	602.024
699.088	601.547
700.233	601.595
701.377	603.932
702.521	603.008
703.665	601.194
704.808	598.81
705.951	596.329
707.094	596.13
708.236	595.817
709.379	593.787
710.522	590.087
711.663	586.778
712.804	584.228
713.946	581.563
715.086	579.764
716.227	577.751
717.367	577.63
718.507	576.129
719.647	574.462
720.786	573.237
721.925	574.179
723.064	574.523
724.202	573.876
725.341	574.06
726.479	573.241
727.616	572.947
728.753	571.576
729.89	570.91
731.027	570.999
732.163	571.699
733.3	572.939
734.436	574.609
735.572	576.017
736.707	576.517
737.842	577.451
738.977	577.358
740.111	577.034
741.246	576.374
742.379	577.712
743.513	577.679
744.646	577.628
745.779	577.03
746.911	575.906
748.044	574.423
749.176	571.688
750.308	570.077
751.44	567.898
752.571	565.911
753.702	564.633
754.833	562.865
755.963	560.719
757.093	558.755
758.223	556.265
759.353	553.48
760.481	550.878
761.61	548.593
762.74	546.362
763.867	543.033
764.996	539.253
766.124	543.219
767.251	541.851
768.378	539.337
769.505	534.928
770.631	531.459
771.758	528.535
772.884	525.975
774.01	523.746
775.136	522.32
776.261	522.607
777.386	521.397
778.51	519.513
779.634	517.145
780.758	514.751
781.882	512.581
783.006	510.652
784.129	510.367
785.252	509.191
786.375	507.785
787.497	506.265
788.619	504.157
789.741	502.49
790.862	500.736
791.983	497.745
793.104	495.692
794.225	492.324
795.345	490.193
796.465	488.585
797.585	486.827
798.704	485.432
799.823	483.096
800.943	481.426
802.061	479.53
803.179	478.225
804.297	478.231
805.415	479.068
806.532	480.249
807.649	481.41
808.766	481.875
809.883	483.343
810.999	484.15
812.115	485.144
813.231	483.35
814.346	481.689
815.461	480.456
816.577	479.81
817.691	478.194
818.805	469.966
819.919	468.478
821.033	467.769
822.146	468.047
823.259	469.336
824.372	474.542
825.485	474.573
826.597	473.921
827.709	472.883
828.82	472.072
829.932	470.917
831.043	467.018
832.154	465.634
833.265	466.039
834.375	465.599
835.484	465.085
836.594	465.542
837.704	467.915
838.813	468.887
839.922	471.212
841.03	471.667
842.138	470.621
843.246	469.589
844.354	468.659
845.461	467.709
846.568	466.891
847.675	466.056
848.782	465.319
849.888	463.446
850.994	462.159
852.1	460.479
853.205	459.634
854.31	459.353
855.415	459.366
856.52	459.452
857.624	459.328
858.727	458.329
859.831	457.183
860.935	455.38
862.038	453.465
863.141	451.692
864.243	449.835
865.345	448.411
866.448	447.588
867.549	446.893
868.651	444.926
869.751	441.734
870.852	438.712
871.953	436.28
873.053	434.245
874.153	432.858
875.253	431.357
876.352	429.777
877.451	427.731
878.55	426.504
879.648	425.435
880.747	424.371
881.845	424.139
882.943	423.705
884.039	423.801
885.137	425.303
886.233	426.336
887.33	427.861
888.426	429.052
889.522	430.012
890.618	430.591
891.713	431.971
892.808	433.614
893.903	432.745
894.998	431.906
896.092	431.075
897.186	428.784
898.28	425.705
899.374	423.616
900.467	422.142
901.559	420.273
902.652	418.94
903.744	418.463
904.836	417.846
905.927	417.46
907.019	417.56
908.111	417.706
909.201	418.482
910.291	418.932
911.382	419.23
912.472	419.943
913.562	420.405
914.651	419.998
915.741	418.723
916.829	417.289
917.918	415.821
919.006	414.367
920.094	412.86
921.181	412.583
922.269	412.02
923.356	411.351
924.443	410.839
925.53	407.14
926.616	403.273
927.702	399.931
928.788	397.038
929.873	394.721
930.958	393.227
932.044	392.229
933.128	392.03
934.212	391.469
935.296	388.894
936.38	386.218
937.463	383.864
938.547	382.122
939.63	380.351
940.712	379.855
941.795	379.488
942.876	379.041
943.958	378.794
945.039	378.363
946.121	377.714
947.202	377.434
948.282	376.251
949.363	375.966
950.443	376.218
951.522	376.519
952.602	376.259
953.681	375.966
954.76	375.378
955.839	374.79
956.917	373.303
957.995	371.87
959.073	370.675
960.151	369.723
961.228	369.021
962.305	368.66
963.381	368.955
964.458	369.236
965.534	367.61
966.61	366.169
967.685	364.937
968.76	364.203
969.836	363.795
970.91	364.612
971.984	365.885
973.059	367.528
974.133	369.294
975.206	370.643
976.279	373.275
977.352	375.46
978.425	376.205
979.497	377.067
980.57	377.923
981.642	378.27
982.714	377.713
983.785	376.554
984.856	375.638
985.927	374.492
986.997	373.68
988.067	372.629
989.137	372.645
990.206	372.694
991.276	372.564
992.345	372.777
993.413	373.349
994.482	374.031
995.55	374.52
996.619	374.717
997.686	375.145
998.754	374.099
999.821	372.722
1000.89	371.513
1001.95	370.65
1003.02	369.242
1004.09	368.031
1005.15	365.247
1006.22	361.767
1007.28	358.557
1008.35	354.589
1009.41	351.462
1010.48	348.312
1011.54	345.55
1012.6	345.759
1013.67	343.601
1014.73	341.395
1015.79	338.966
1016.86	336.478
1017.92	334.596
1018.98	333.293
1020.04	332.152
1021.1	331.261
1022.16	330.697
1023.23	330.217
1024.29	329.917
1025.35	327.979
1026.41	325.489
1027.47	324.122
1028.53	323.053
1029.58	322.297
1030.64	321.644
1031.7	320.959
1032.76	320.538
1033.82	320.562
1034.88	320.781
1035.93	321.526
1036.99	322.341
1038.05	322.913
1039.11	323.758
1040.16	324.373
1041.22	324.827
1042.27	325.868
1043.33	326.828
1044.38	326.524
1045.44	325.83
1046.49	324.794
1047.55	323.826
1048.6	323.385
1049.66	323.103
1050.71	321.666
1051.76	320.293
1052.82	318.558
1053.87	316.396
1054.92	315.496
1055.97	314.421
1057.03	313.545
1058.08	312.812
1059.13	312.774
1060.18	312.869
1061.23	312.814
1062.28	313.171
1063.33	313.011
1064.38	312.441
1065.43	311.9
1066.48	312.123
1067.53	311.751
1068.58	311.192
1069.63	310.185
1070.68	310.157
1071.72	309.999
1072.77	309.864
1073.82	309.969
1074.87	310.538
1075.91	309.978
1076.96	308.907
1078.01	307.914
1079.05	306.933
1080.1	305.949
1081.14	305.191
1082.19	304.555
1083.23	304.087
1084.28	303.749
1085.32	303.686
1086.37	300.579
1087.41	298.021
1088.46	295.46
1089.5	293.24
1090.54	291.21
1091.58	289.683
1092.63	288.829
1093.67	288.537
1094.71	288.912
1095.75	288.617
1096.79	288.48
1097.83	289.152
1098.88	289.866
1099.92	290.353
1100.96	290.304
1102	290.964
1103.04	290.721
1104.08	289.851
1105.11	289.208
1106.15	288.145
1107.19	288.321
1108.23	287.615
1109.27	287.506
1110.31	287.65
1111.34	288.082
1112.38	290.442
1113.42	290.671
1114.45	290.982
1115.49	290.299
1116.53	289.408
1117.56	286.747
1118.6	284.763
1119.63	282.792
1120.67	280.386
1121.7	276.564
1122.74	273.912
1123.77	271.992
1124.81	270.006
1125.84	271.921
1126.87	270.777
1127.91	272.43
1128.94	271.836
1129.97	270.717
1131	269.233
1132.04	269.39
1133.07	269.719
1134.1	270.236
1135.13	273.277
1136.16	276.629
1137.19	281.01
1138.22	292.311
1139.25	295.946
1140.28	297.036
1141.31	297.976
1142.34	298.721
1143.37	299.303
1144.4	299.69
1145.42	299.707
1146.45	299.639
1147.48	298.868
1148.51	299.107
1149.53	301.412
1150.56	304.23
1151.59	304.376
1152.62	305.619
1153.64	307.926
1154.67	310.192
1155.69	311.597
1156.72	312.371
1157.74	313.048
1158.77	312.439
1159.79	310.253
1160.82	306.369
1161.84	300.828
1162.86	296.31
1163.89	292.183
1164.91	288.114
1165.93	284.715
1166.96	281.779
1167.98	279.234
1169	276.335
1170.02	273.693
1171.04	271.4
1172.06	270.084
1173.09	269.089
1174.11	269.089
1175.13	269.583
1176.15	270.378
1177.17	272.054
1178.18	273.796
1179.2	275.36
1180.22	277.902
1181.24	280.714
1182.26	283.6
1183.28	286.835
1184.3	288.86
1185.31	290.074
1186.33	289.307
1187.35	287.896
1188.37	285.857
1189.38	283.194
1190.4	280.095
1191.41	276.31
1192.43	272.219
1193.44	268.459
1194.46	264.903
1195.48	261.661
1196.49	258.844
1197.5	256.397
1198.52	254.351
1199.53	252.801
1200.54	251.613
1201.56	250.974
1202.57	250.647
1203.58	250.852
1204.6	251.549
1205.61	252.681
1206.62	257.293
1207.63	257.562
1208.64	257.198
1209.65	257.527
1210.66	257.906
1211.67	257.878
1212.68	256.853
1213.69	255.81
1214.7	254.857
1215.71	253.875
1216.72	253.184
1217.73	252.702
1218.74	252.909
1219.75	254.75
1220.76	255.672
1221.76	256.369
1222.77	256.84
1223.78	256.99
1224.79	252.95
1225.79	248.92
1226.8	247.479
1227.8	248.182
1228.81	252.98
1229.82	249.802
1230.82	247.418
1231.83	245.376
1232.83	243.613
1233.84	241.814
1234.84	239.748
1235.84	237.753
1236.85	235.789
1237.85	233.92
1238.85	232.075
1239.86	230.844
1240.86	229.413
1241.86	227.877
1242.86	227.051
1243.86	226.33
1244.87	225.583
1245.87	224.416
1246.87	223.911
1247.87	223.713
1248.87	223.508
1249.87	222.792
1250.87	221.536
1251.87	220.981
1252.87	220.688
1253.87	220.132
1254.86	219.718
1255.86	219.443
1256.86	218.908
1257.86	219.489
1258.86	219.908
1259.85	221.042
1260.85	221.488
1261.85	222.073
1262.84	222.832
1263.84	223.459
1264.84	222.378
1265.83	221.151
1266.83	220.024
1267.82	219.058
1268.82	217.961
1269.81	216.983
1270.81	216.105
1271.8	215.48
1272.8	215.028
1273.79	214.876
1274.78	215.171
1275.77	216.39
1276.77	219.28
1277.76	219.861
1278.75	220.449
1279.74	220.755
1280.74	220.895
1281.73	220.364
1282.72	219.747
1283.71	220.154
1284.7	221.125
1285.69	221.399
1286.68	221.323
1287.67	220.464
1288.66	219.747
1289.65	219.12
1290.64	218.133
1291.63	216.71
1292.61	213.951
1293.6	211.609
1294.59	209.969
1295.58	208.736
1296.56	207.884
1297.55	207.507
1298.54	207.52
1299.52	207.89
1300.51	208.608
1301.5	209.713
1302.48	211.23
1303.47	212.796
1304.45	214.219
1305.44	214.207
1306.42	213.059
1307.41	211.411
1308.39	209.748
1309.37	207.882
1310.36	206.04
1311.34	203.479
1312.32	201.109
1313.31	198.261
1314.29	197.769
1315.27	197.844
1316.25	198.237
1317.23	198.883
1318.22	200.619
1319.2	201.472
1320.18	204.125
1321.16	207.401
1322.14	211.104
1323.12	215.961
1324.1	222.682
1325.08	226.421
1326.06	226.853
1327.04	226.97
1328.01	225.148
1328.99	223.963
1329.97	220.64
1330.95	217.777
1331.93	214.533
1332.9	211.32
1333.88	207.851
1334.86	204.604
1335.83	201.688
1336.81	199.045
1337.79	197.031
1338.76	195.769
1339.74	194.931
1340.71	193.977
1341.69	193.152
1342.66	192.404
1343.64	191.383
1344.61	190.153
1345.58	189.433
1346.56	188.906
1347.53	188.42
1348.5	187.935
1349.48	187.514
1350.45	187.309
1351.42	187.121
1352.39	187.084
1353.36	187.033
1354.34	187.105
1355.31	187.269
1356.28	187.533
1357.25	187.803
1358.22	186.586
1359.19	185.091
1360.16	183.529
1361.13	182.343
1362.1	181.257
1363.07	179.608
1364.03	178.716
1365	178.393
1365.97	178.248
1366.94	178.684
1367.91	179.294
1368.87	179.499
1369.84	180.067
1370.81	179.935
1371.77	179.525
1372.74	179.091
1373.71	179.565
1374.67	180.235
1375.64	180.723
1376.6	181.088
1377.57	181.014
1378.53	180.993
1379.5	180.418
1380.46	179.706
1381.42	178.96
1382.39	178.279
1383.35	178.112
1384.31	178.515
1385.28	178.807
1386.24	178.678
1387.2	178.792
1388.16	178.662
1389.13	179.019
1390.09	178.831
1391.05	178.211
1392.01	178.143
1392.97	178.367
1393.93	178.169
1394.89	177.561
1395.85	176.654
1396.81	175.78
1397.77	174.848
1398.73	173.685
1399.69	172.508
1400.64	171.157
1401.6	170.394
1402.56	167.454
1403.52	165
1404.48	163.118
1405.43	161.839
1406.39	160.971
1407.35	160.609
1408.3	161.096
1409.26	161.748
1410.22	161.303
1411.17	161.154
1412.13	161.424
1413.08	161.437
1414.04	161.698
1414.99	161.977
1415.94	161.928
1416.9	161.812
1417.85	161.846
1418.81	161.561
1419.76	160.682
1420.71	156.636
1421.66	155.983
1422.62	155.86
1423.57	155.206
1424.52	157.101
1425.47	160.234
1426.42	162.657
1427.37	163.196
1428.33	163.603
1429.28	163.69
1430.23	164.421
1431.18	165.301
1432.13	166.069
1433.07	166.591
1434.02	167.399
1434.97	167.857
1435.92	168.725
1436.87	169.303
1437.82	169.391
1438.77	169.601
1439.71	169.596
1440.66	168.975
1441.61	168.196
1442.55	167.21
1443.5	166.002
1444.45	164.402
1445.39	162.568
1446.34	160.935
1447.28	159.385
1448.23	158.405
1449.18	156.777
1450.12	154.501
1451.06	152.754
1452.01	151.432
1452.95	153.156
1453.9	153.304
1454.84	152.712
1455.78	151.945
1456.72	151.233
1457.67	150.257
1458.61	149.06
1459.55	147.809
1460.49	146.57
1461.43	145.521
1462.38	145.038
1463.32	144.738
1464.26	144.702
1465.2	145.055
1466.14	145.852
1467.08	146.782
1468.02	147.746
1468.96	148.629
1469.9	148.753
1470.83	148.219
1471.77	147.328
1472.71	146.349
1473.65	145.225
1474.59	145.032
1475.53	145.331
1476.46	146.817
1477.4	147.573
1478.34	148.599
1479.27	149.593
1480.21	150.926
1481.14	151.854
1482.08	152.745
1483.02	153.723
1483.95	154.394
1484.89	154.301
1485.82	154.057
1486.75	153.723
1487.69	153.419
1488.62	153.041
1489.56	152.747
1490.49	152.484
1491.42	152.268
1492.35	152.083
1493.29	151.876
1494.22	151.539
1495.15	150.468
1496.08	149.752
1497.01	148.618
1497.95	147.692
1498.88	147.398
1499.81	147.206
1500.74	147.434
1501.67	148.009
1502.6	148.261
1503.53	148.839
1504.46	149.286
1505.39	149.073
1506.31	149.003
1507.24	149.092
1508.17	150.124
1509.1	151.017
1510.03	152.18
1510.95	153.762
1511.88	155.739
1512.81	158.293
1513.74	161.972
1514.66	165.767
1515.59	167.634
1516.51	172.224
1517.44	176.925
1518.37	180.636
1519.29	183.378
1520.22	186.407
1521.14	189.066
1522.06	191.54
1522.99	193.553
1523.91	194.862
1524.84	195.682
1525.76	195.859
1526.68	195.608
1527.61	194.992
1528.53	193.638
1529.45	191.146
1530.37	188.465
1531.29	185.687
1532.21	182.584
1533.14	179.377
1534.06	175.548
1534.98	171.148
1535.9	167.319
1536.82	164.526
1537.74	161.544
1538.66	159.405
1539.58	157.367
1540.5	155.925
1541.42	154.442
1542.33	152.409
1543.25	150.597
1544.17	149.253
1545.09	148.145
1546.01	147.25
1546.92	146.621
1547.84	146.416
1548.76	146.853
1549.67	147.324
1550.59	147.769
1551.51	147.597
1552.42	147.262
1553.34	146.646
1554.25	145.449
1555.17	143.982
1556.08	142.267
1557	140.349
1557.91	138.447
1558.82	136.569
1559.74	134.825
1560.65	133.37
1561.56	132.085
1562.48	130.912
1563.39	130.057
1564.3	129.189
1565.21	128.92
1566.13	128.848
1567.04	128.914
1567.95	129.016
1568.86	129.141
1569.77	129.198
1570.68	128.285
1571.59	127.155
1572.5	126.117
1573.41	125.343
1574.32	124.79
1575.23	124.167
1576.14	123.567
1577.05	122.752
1577.95	122.113
1578.86	121.928
1579.77	121.687
1580.68	121.669
1581.59	121.961
1582.49	122.356
1583.4	122.803
1584.31	123.65
1585.21	124.654
1586.12	125.057
1587.02	125.016
1587.93	125.393
1588.84	125.878
1589.74	126.28
1590.65	126.252
1591.55	126.345
1592.45	126.38
1593.36	126.429
1594.26	126.723
1595.17	127.364
1596.07	128.489
1596.97	129.88
1597.87	131.385
1598.78	132.775
1599.68	133.926
1600.58	134.974
1601.48	135.958
1602.38	136.748
1603.29	137.249
1604.19	137.514
1605.09	137.39
1605.99	137.125
1606.89	136.688
1607.79	136.165
1608.69	135.725
1609.59	135.333
1610.49	135.134
1611.38	134.527
1612.28	133.69
1613.18	132.531
1614.08	131.434
1614.98	130.178
1615.87	129.034
1616.77	127.994
1617.67	127.04
1618.57	126.228
1619.46	125.469
1620.36	124.774
1621.25	124.003
1622.15	123.304
1623.05	122.69
1623.94	122.094
1624.84	121.811
1625.73	122.23
1626.62	122.843
1627.52	123.459
1628.41	124.05
1629.31	124.568
1630.2	124.841
1631.09	124.79
1631.99	123.321
1632.87	122.659
1633.8	119.79
1634.73	119.133
1635.65	119.057
1636.58	119.394
1637.51	119.991
1638.44	120.545
1639.37	119.883
1640.29	118.644
1641.22	117.3
1642.15	115.868
1643.08	114.417
1644	113.06
1644.93	112.35
1645.85	111.905
1646.78	111.687
1647.71	111.591
1648.63	111.68
1649.56	111.461
1650.48	110.183
1651.41	109.112
1652.33	108.27
1653.26	107.684
1654.18	107.306
1655.1	107.225
1656.03	107.295
1656.95	107.614
1657.87	108.097
1658.8	108.631
1659.72	108.228
1660.64	107.372
1661.56	106.538
1662.49	105.785
1663.41	106.066
1664.33	106.521
1665.25	107.057
1666.17	107.658
1667.09	108.233
1668.02	108.597
1668.94	108.84
1669.86	109.079
1670.78	108.431
1671.7	107.373
1672.62	106.615
1673.53	106.029
1674.45	105.632
1675.37	105.557
1676.29	105.762
1677.21	105.946
1678.13	106.093
1679.05	105.369
1679.96	102.822
1680.88	102.081
1681.8	101.868
1682.72	101.154
1683.63	100.32
1684.55	99.6733
1685.47	99.1297
1686.38	98.8154
1687.3	98.6676
1688.21	98.784
1689.13	99.0846
1690.05	99.6953
1690.96	100.516
1691.87	101.516
1692.79	102.926
1693.7	104.495
1694.62	104.536
1695.53	103.668
1696.45	103.214
1697.36	103.458
1698.27	103.062
1699.19	102.066
1700.1	100.937
1701.01	99.8691
1701.92	98.8277
1702.84	97.1501
1703.75	95.8228
1704.66	94.77
1705.57	94.1992
1706.48	94.7638
1707.39	94.5849
1708.3	94.2787
1709.21	94.0499
1710.12	93.8613
1711.03	93.7061
1711.95	93.5806
1712.85	93.4948
1713.76	93.5623
1714.67	93.3914
1715.58	93.2047
1716.49	93.0333
1717.4	92.6486
1718.31	92.3509
1719.22	92.093
1720.12	91.8145
1721.03	91.6106
1721.94	91.4174
1722.85	91.2677
1723.75	91.0964
1724.66	90.9779
1725.57	90.9639
1726.47	90.9972
1727.38	91.0359
1728.28	91.1384
1729.19	91.1075
1730.1	91.2025
1731	91.2752
1731.91	91.3768
1732.81	91.4299
1733.71	91.5206
1734.62	91.4598
1735.52	91.3421
1736.43	91.2138
1737.33	91.0766
1738.23	91.2391
1739.14	91.0168
1740.04	90.7964
1740.94	90.5653
1741.85	90.3001
1742.75	90.0646
1743.65	89.7373
1744.55	89.4643
1745.45	89.1932
1746.35	88.8147
1747.26	88.2617
1748.16	87.6823
1749.06	87.2178
1749.96	86.7851
1750.86	86.4776
1751.76	87.0939
1752.66	87.547
1753.56	88.1804
1754.46	88.9827
1755.36	89.4663
1756.25	89.794
1757.15	90.1789
1758.05	90.0744
1758.95	89.2505
1759.85	88.6763
1760.75	88.1339
1761.64	87.6975
1762.54	87.5759
1763.44	87.4443
1764.33	87.4542
1765.23	87.4672
1766.13	87.6533
1767.02	87.8645
1767.92	87.9178
1768.82	87.8368
1769.71	87.5998
1770.61	87.3862
1771.5	87.159
1772.4	86.945
1773.29	86.715
1774.19	86.5006
1775.08	86.3052
1775.97	86.0818
1776.87	85.974
1777.76	84.9261
1778.65	85.5841
1779.55	85.8606
1780.44	85.8215
1781.33	85.683
1782.23	85.4222
1783.12	85.0578
1784.01	84.6805
1784.9	84.0506
1785.79	83.2709
1786.68	82.3084
1787.58	81.2705
1788.47	82.6043
1789.36	82.2666
1790.25	81.9189
1791.14	81.5587
1792.03	81.1692
1792.92	80.7529
1793.81	80.3391
1794.7	79.6087
1795.58	79.2385
1796.47	79.8582
1797.36	81.0285
1798.25	82.127
1799.14	82.1712
