Acq. time (s)=	15
Accumulations=	2
Range (cm-¹)=	600...1800
Windows=	2
Autofocus=	Off
AutoExposure=	Off
Spike filter=	Multiple accum.
Delay time (s)=	1
Binning=	1
Readout mode=	Signal
DeNoise=	Standard
ICS correction=	Off
Dark correction=	Off
Inst. Process=	Off
Instrument=	XploRA
Detector=	Syncerity
Objective=	x20LWD
Grating=	1200 gr/mm
Filter=	25%
Laser (nm)=	785 
Slit (µm)=	100 
Hole (µm)=	300 
Laser pol=	None
Raman pol=	None
Output=	Camera
StageXY=	Marzhauser
StageZ=	
X (µm)=	6657.5
Y (µm)=	-539.3
Project=	
Sample=	
Site=	
Title=	CLsoP1 f4
Remark=	
Date=	06.04.2022 11:33
Acquired=	06.04.2022 11:33:06
600.731	1880.08
601.9	1905.87
603.069	1925.37
604.238	1944.65
605.406	1961.26
606.575	1980.23
607.743	1996.24
608.91	2011.68
610.078	2022.92
611.245	2033.36
612.411	2041.78
613.579	2048.48
614.745	2056.02
615.91	2060.32
617.076	2063.62
618.241	2065.62
619.407	2065.4
620.571	2064.87
621.735	2063.91
622.9	2063.54
624.063	2062.38
625.227	2061.67
626.39	2061.27
627.553	2061.89
628.716	2062.19
629.879	2063.85
631.041	2063.83
632.203	2064.51
633.364	2063.31
634.526	2062.6
635.686	2063.36
636.847	2063.16
638.007	2062.04
639.167	2058.99
640.327	2056.89
641.486	2053.45
642.645	2049.67
643.805	2047.18
644.963	2044.71
646.122	2042.92
647.28	2041.23
648.438	2042.24
649.594	2042.99
650.752	2044.01
651.909	2043.71
653.065	2045.15
654.221	2046.53
655.377	2046.55
656.533	2046.65
657.688	2047.56
658.843	2049.91
659.998	2053.29
661.153	2054.6
662.307	2053.72
663.461	2054.24
664.615	2055.17
665.768	2056.05
666.921	2057.18
668.074	2056.38
669.226	2056.8
670.379	2056.61
671.53	2058.31
672.682	2059.53
673.833	2062.61
674.984	2065.62
676.135	2068.71
677.285	2072.59
678.436	2076.72
679.586	2079.46
680.735	2081.04
681.884	2083.16
683.033	2084.1
684.182	2083.92
685.33	2081.88
686.478	2080.85
687.626	2078.61
688.774	2075.16
689.921	2071.59
691.068	2068.15
692.214	2063.09
693.361	2057.88
694.507	2053.09
695.652	2050.61
696.798	2048.57
697.943	2046.69
699.088	2045.67
700.233	2043.75
701.377	2042.72
702.521	2040.03
703.665	2036.14
704.808	2033.05
705.951	2030.38
707.094	2027.83
708.236	2023.53
709.379	2019.6
710.522	2014.29
711.663	2006.27
712.804	2002.63
713.946	1996.06
715.086	1991.44
716.227	1990.02
717.367	1992.92
718.507	1999.62
719.647	2005.33
720.786	2013.28
721.925	2012.69
723.064	2006.5
724.202	1998.77
725.341	1990.39
726.479	1978.34
727.616	1966.72
728.753	1953.74
729.89	1944.83
731.027	1946.57
732.163	1947.36
733.3	1953.16
734.436	1959.65
735.572	1971.67
736.707	1981.63
737.842	1990.54
738.977	2000.02
740.111	2009.16
741.246	2018
742.379	2025.05
743.513	2028.86
744.646	2030.67
745.779	2027.74
746.911	2021.13
748.044	2010.02
749.176	2000.95
750.308	1994.36
751.44	1989.21
752.571	1982.07
753.702	1974.16
754.833	1964.27
755.963	1952.17
757.093	1940.24
758.223	1927.85
759.353	1913.6
760.481	1898.51
761.61	1887.41
762.74	1878.92
763.867	1871.9
764.996	1865.67
766.124	1858.93
767.251	1852.02
768.378	1844.28
769.505	1837.39
770.631	1832.06
771.758	1827.1
772.884	1820.82
774.01	1813.55
775.136	1805.31
776.261	1795.86
777.386	1786.83
778.51	1778.99
779.634	1774.54
780.758	1770.44
781.882	1770.2
783.006	1767
784.129	1763.89
785.252	1761.31
786.375	1758.3
787.497	1755.17
788.619	1750.2
789.741	1744.84
790.862	1738.92
791.983	1732.74
793.104	1727.59
794.225	1719.61
795.345	1713.63
796.465	1707.52
797.585	1703.15
798.704	1697.78
799.823	1694.15
800.943	1690.61
802.061	1688.07
803.179	1685.3
804.297	1683.49
805.415	1681.22
806.532	1677.4
807.649	1675.38
808.766	1673.13
809.883	1666.58
810.999	1657.71
812.115	1656.08
813.231	1656.59
814.346	1657.48
815.461	1657.73
816.577	1658.3
817.691	1659.02
818.805	1658.56
819.919	1657.69
821.033	1649.6
822.146	1646.76
823.259	1644.16
824.372	1641.24
825.485	1638.12
826.597	1633.96
827.709	1629.19
828.82	1620.96
829.932	1615.58
831.043	1611.02
832.154	1605.77
833.265	1602.05
834.375	1597.86
835.484	1594.18
836.594	1591.35
837.704	1588.79
838.813	1589.05
839.922	1588.3
841.03	1588.23
842.138	1588.66
843.246	1589.55
844.354	1590.32
845.461	1590.18
846.568	1590.73
847.675	1590.18
848.782	1588.36
849.888	1586.32
850.994	1584.72
852.1	1580.54
853.205	1575.29
854.31	1570.34
855.415	1564.34
856.52	1557.29
857.624	1549.84
858.727	1542.23
859.831	1535.99
860.935	1530.4
862.038	1524.84
863.141	1520.28
864.243	1515.18
865.345	1511.3
866.448	1506.56
867.549	1502.52
868.651	1499.04
869.751	1495.09
870.852	1491.3
871.953	1487.46
873.053	1484.15
874.153	1480.34
875.253	1478.17
876.352	1474.37
877.451	1471.08
878.55	1467.15
879.648	1463.55
880.747	1460.7
881.845	1456.49
882.943	1452.55
884.039	1446.68
885.137	1439.46
886.233	1434.13
887.33	1428.27
888.426	1424.56
889.522	1423.45
890.618	1422.73
891.713	1421.61
892.808	1421.39
893.903	1422.04
894.998	1424.89
896.092	1428.85
897.186	1429.81
898.28	1433.07
899.374	1432.64
900.467	1432.4
901.559	1433.08
902.652	1429.59
903.744	1427.49
904.836	1426.8
905.927	1427.37
907.019	1429.44
908.111	1433.93
909.201	1439.73
910.291	1447.79
911.382	1455
912.472	1458.25
913.562	1459.36
914.651	1459.18
915.741	1458.04
916.829	1455.75
917.918	1449.94
919.006	1437.57
920.094	1428.36
921.181	1418.05
922.269	1406.78
923.356	1393.25
924.443	1380.88
925.53	1367.77
926.616	1356.06
927.702	1345.15
928.788	1335.02
929.873	1326.4
930.958	1319.51
932.044	1313.41
933.128	1309.97
934.212	1306.97
935.296	1304.36
936.38	1303.21
937.463	1303.46
938.547	1305.09
939.63	1306.22
940.712	1307.63
941.795	1307.75
942.876	1307.96
943.958	1306.82
945.039	1304.55
946.121	1300.92
947.202	1296.59
948.282	1291.48
949.363	1285.47
950.443	1279.2
951.522	1272.53
952.602	1267.06
953.681	1262.89
954.76	1261.18
955.839	1257.43
956.917	1255.51
957.995	1253.94
959.073	1253.6
960.151	1253.61
961.228	1253.55
962.305	1252.47
963.381	1250.92
964.458	1249.57
965.534	1248.78
966.61	1247
967.685	1245.77
968.76	1243.08
969.836	1241.4
970.91	1239.56
971.984	1238.77
973.059	1239.47
974.133	1242.89
975.206	1247.18
976.279	1252.92
977.352	1257.97
978.425	1264.59
979.497	1270.69
980.57	1277.87
981.642	1284.73
982.714	1291.17
983.785	1295.69
984.856	1299.39
985.927	1301.73
986.997	1301.86
988.067	1300.96
989.137	1300.15
990.206	1297.11
991.276	1294.15
992.345	1291.13
993.413	1287.03
994.482	1283.11
995.55	1279.17
996.619	1275.46
997.686	1272.76
998.754	1268.73
999.821	1265.21
1000.89	1260.89
1001.95	1260.31
1003.02	1257.07
1004.09	1251.23
1005.15	1246.06
1006.22	1240.27
1007.28	1232.03
1008.35	1222.13
1009.41	1211.84
1010.48	1200.94
1011.54	1190.15
1012.6	1179.87
1013.67	1169.96
1014.73	1160.43
1015.79	1153.13
1016.86	1146.92
1017.92	1140.96
1018.98	1136.51
1020.04	1132.75
1021.1	1127.58
1022.16	1122.62
1023.23	1117.97
1024.29	1113.97
1025.35	1111.7
1026.41	1109.02
1027.47	1105.46
1028.53	1101.07
1029.58	1096.32
1030.64	1091.96
1031.7	1088.81
1032.76	1086.41
1033.82	1084.93
1034.88	1084.44
1035.93	1084.33
1036.99	1086.57
1038.05	1088.47
1039.11	1089.53
1040.16	1092.56
1041.22	1096.98
1042.27	1101.45
1043.33	1104.88
1044.38	1107.17
1045.44	1108.67
1046.49	1108.41
1047.55	1106.09
1048.6	1104.01
1049.66	1101.78
1050.71	1101.12
1051.76	1097.45
1052.82	1091.69
1053.87	1085.26
1054.92	1078.85
1055.97	1070.83
1057.03	1062.27
1058.08	1055.88
1059.13	1050.64
1060.18	1047.33
1061.23	1045.64
1062.28	1045.45
1063.33	1045.71
1064.38	1047.05
1065.43	1052.3
1066.48	1051.89
1067.53	1051.48
1068.58	1050.82
1069.63	1049.63
1070.68	1045.06
1071.72	1038.61
1072.77	1033.98
1073.82	1029.06
1074.87	1021.84
1075.91	1016.63
1076.96	1012.27
1078.01	1008.12
1079.05	1003.12
1080.1	1000.9
1081.14	998.335
1082.19	996.921
1083.23	995.337
1084.28	993.358
1085.32	991.401
1086.37	988.753
1087.41	986.779
1088.46	985.65
1089.5	985.124
1090.54	982.655
1091.58	980.05
1092.63	978.689
1093.67	979.013
1094.71	979.529
1095.75	980.132
1096.79	980.791
1097.83	981.394
1098.88	981.734
1099.92	981.492
1100.96	980.379
1102	980.532
1103.04	980.317
1104.08	980.308
1105.11	979.681
1106.15	979.843
1107.19	982.765
1108.23	986.203
1109.27	988.719
1110.31	989.497
1111.34	989.037
1112.38	988.79
1113.42	987.651
1114.45	986.158
1115.49	983.112
1116.53	980.448
1117.56	976.408
1118.6	971.244
1119.63	966.15
1120.67	961.116
1121.7	955.706
1122.74	950.411
1123.77	946.383
1124.81	943.288
1125.84	941.511
1126.87	941.287
1127.91	941.197
1128.94	940.933
1129.97	941.004
1131	941.731
1132.04	943.922
1133.07	945.975
1134.1	951.699
1135.13	958.605
1136.16	965.53
1137.19	976.034
1138.22	986.493
1139.25	999.81
1140.28	1013.83
1141.31	1028.72
1142.34	1042.57
1143.37	1056.56
1144.4	1064
1145.42	1060.18
1146.45	1025.11
1147.48	1036.01
1148.51	1048.34
1149.53	1049.85
1150.56	1057.09
1151.59	1066.2
1152.62	1081.4
1153.64	1101.77
1154.67	1118.56
1155.69	1135.37
1156.72	1152.39
1157.74	1165.71
1158.77	1151.37
1159.79	1124.4
1160.82	1095.45
1161.84	1063.71
1162.86	1031.95
1163.89	1003.08
1164.91	977.057
1165.93	962.567
1166.96	945.976
1167.98	933.504
1169	925.428
1170.02	919.315
1171.04	917.594
1172.06	915.806
1173.09	915.06
1174.11	917.236
1175.13	921.563
1176.15	928.024
1177.17	935.323
1178.18	944.256
1179.2	953.444
1180.22	961.651
1181.24	969.148
1182.26	975.5
1183.28	981.308
1184.3	985.622
1185.31	990.083
1186.33	990.215
1187.35	990.096
1188.37	987.694
1189.38	981.049
1190.4	968.317
1191.41	957.049
1192.43	944.273
1193.44	932.103
1194.46	920.003
1195.48	907.515
1196.49	895.947
1197.5	884.921
1198.52	874.979
1199.53	864.337
1200.54	856.984
1201.56	853.047
1202.57	852.924
1203.58	856.841
1204.6	858.761
1205.61	860.959
1206.62	862.164
1207.63	863.333
1208.64	863.805
1209.65	858.233
1210.66	857.296
1211.67	857.951
1212.68	858.872
1213.69	858.129
1214.7	856.95
1215.71	857.87
1216.72	858.941
1217.73	859.208
1218.74	860.194
1219.75	861.668
1220.76	865.125
1221.76	869.901
1222.77	875.835
1223.78	877.993
1224.79	879.882
1225.79	879.441
1226.8	876.349
1227.8	872.362
1228.81	866.097
1229.82	859.031
1230.82	850.961
1231.83	842.014
1232.83	832.975
1233.84	823.193
1234.84	812.615
1235.84	802.316
1236.85	792.289
1237.85	781.983
1238.85	774.117
1239.86	767.56
1240.86	762.507
1241.86	758.36
1242.86	754.006
1243.86	749.818
1244.87	746.976
1245.87	745.001
1246.87	742.588
1247.87	740.417
1248.87	740.272
1249.87	740.553
1250.87	740.931
1251.87	741.398
1252.87	743.376
1253.87	746.224
1254.86	747.68
1255.86	750.175
1256.86	751.568
1257.86	752.789
1258.86	754.401
1259.85	754.081
1260.85	752.183
1261.85	749.901
1262.84	745.981
1263.84	741.712
1264.84	737.457
1265.83	732.138
1266.83	726.07
1267.82	721.308
1268.82	717.662
1269.81	713.282
1270.81	710.168
1271.8	708.304
1272.8	706.649
1273.79	706.028
1274.78	706.056
1275.77	703.631
1276.77	704.381
1277.76	706.132
1278.75	709.507
1279.74	713.363
1280.74	718.201
1281.73	723.037
1282.72	726.765
1283.71	729.995
1284.7	734.473
1285.69	736.834
1286.68	738.688
1287.67	740.096
1288.66	738.85
1289.65	735.447
1290.64	731.444
1291.63	725.063
1292.61	718.14
1293.6	710.746
1294.59	703.357
1295.58	697.517
1296.56	692.073
1297.55	686.585
1298.54	683.425
1299.52	681.071
1300.51	680.037
1301.5	679.276
1302.48	678.158
1303.47	678.402
1304.45	678.808
1305.44	680.253
1306.42	681.145
1307.41	681.94
1308.39	681.812
1309.37	681.184
1310.36	680.294
1311.34	679.194
1312.32	679.206
1313.31	678.739
1314.29	677.146
1315.27	678.147
1316.25	678.908
1317.23	682.139
1318.22	685.216
1319.2	691.682
1320.18	697.555
1321.16	702.216
1322.14	715.906
1323.12	730.635
1324.1	745.445
1325.08	762.411
1326.06	774.366
1327.04	789.13
1328.01	787.936
1328.99	782.836
1329.97	772.664
1330.95	742.814
1331.93	724.2
1332.9	706.635
1333.88	690.057
1334.86	673.904
1335.83	669.273
1336.81	661.19
1337.79	654.559
1338.76	648.727
1339.74	644.013
1340.71	639.07
1341.69	634.453
1342.66	630.507
1343.64	627.13
1344.61	623.655
1345.58	621.706
1346.56	620.591
1347.53	618.794
1348.5	616.834
1349.48	611.673
1350.45	608.274
1351.42	609.699
1352.39	611.744
1353.36	612.971
1354.34	615.633
1355.31	616.193
1356.28	614.756
1357.25	613.594
1358.22	612.96
1359.19	610.138
1360.16	606.086
1361.13	598.471
1362.1	593.453
1363.07	588.172
1364.03	583.432
1365	579.791
1365.97	576.271
1366.94	575.934
1367.91	574.591
1368.87	573.767
1369.84	575.197
1370.81	576.915
1371.77	577.891
1372.74	579.644
1373.71	581.96
1374.67	585.096
1375.64	589.054
1376.6	590.075
1377.57	591.95
1378.53	593.858
1379.5	594.717
1380.46	595.184
1381.42	595.509
1382.39	594.317
1383.35	593.375
1384.31	591.771
1385.28	589.824
1386.24	587.746
1387.2	584.76
1388.16	582.47
1389.13	579.975
1390.09	578.37
1391.05	576.348
1392.01	574.012
1392.97	571.239
1393.93	569.266
1394.89	566.438
1395.85	562.942
1396.81	560.186
1397.77	556.976
1398.73	554.622
1399.69	552.246
1400.64	549.409
1401.6	546.608
1402.56	543.707
1403.52	541.252
1404.48	538.963
1405.43	535.814
1406.39	534.128
1407.35	532.773
1408.3	532.055
1409.26	531.828
1410.22	531.143
1411.17	531.354
1412.13	530.29
1413.08	529.592
1414.04	527.987
1414.99	526.03
1415.94	525.015
1416.9	524.056
1417.85	523.062
1418.81	522.08
1419.76	520.706
1420.71	519.592
1421.66	519.333
1422.62	519.383
1423.57	519.722
1424.52	520.674
1425.47	522.482
1426.42	524.077
1427.37	527.152
1428.33	530.066
1429.28	533.237
1430.23	536.292
1431.18	538.445
1432.13	542.064
1433.07	545.015
1434.02	547.954
1434.97	552.115
1435.92	555.66
1436.87	559.144
1437.82	560.864
1438.77	562.635
1439.71	563.687
1440.66	563.596
1441.61	562.472
1442.55	560.689
1443.5	558.009
1444.45	553.95
1445.39	548.984
1446.34	543.209
1447.28	538.495
1448.23	533.174
1449.18	526.857
1450.12	520.797
1451.06	515.388
1452.01	509.571
1452.95	505.424
1453.9	501.752
1454.84	497.321
1455.78	494.446
1456.72	492.034
1457.67	491.111
1458.61	489.255
1459.55	486.616
1460.49	484.902
1461.43	483.135
1462.38	481.004
1463.32	478.814
1464.26	477.703
1465.2	476.826
1466.14	476.15
1467.08	475.949
1468.02	474.877
1468.96	475.583
1469.9	477.626
1470.83	479.283
1471.77	481.515
1472.71	483.102
1473.65	484.008
1474.59	485.564
1475.53	485.957
1476.46	486.809
1477.4	489.511
1478.34	490.474
1479.27	489.383
1480.21	488.84
1481.14	487.91
1482.08	487.733
1483.02	488.115
1483.95	489.854
1484.89	490.168
1485.82	490.347
1486.75	490.501
1487.69	488.964
1488.62	488.295
1489.56	487.859
1490.49	487.075
1491.42	486.354
1492.35	486.074
1493.29	485.192
1494.22	483.279
1495.15	481.149
1496.08	478.861
1497.01	477.133
1497.95	475.376
1498.88	474.309
1499.81	472.843
1500.74	471.836
1501.67	471.079
1502.6	470.929
1503.53	472.828
1504.46	474.156
1505.39	476.306
1506.31	479.263
1507.24	482.257
1508.17	486.844
1509.1	491.921
1510.03	497.52
1510.95	504.635
1511.88	512.867
1512.81	520.303
1513.74	531.821
1514.66	544.934
1515.59	559.745
1516.51	576.43
1517.44	593.31
1518.37	612.55
1519.29	633.949
1520.22	651.404
1521.14	667.482
1522.06	682.429
1522.99	693.408
1523.91	702.772
1524.84	705.619
1525.76	710.868
1526.68	712.723
1527.61	718.946
1528.53	715.43
1529.45	706.456
1530.37	696.163
1531.29	684.33
1532.21	669.261
1533.14	653.078
1534.06	636.43
1534.98	620.753
1535.9	604.427
1536.82	587.861
1537.74	571.797
1538.66	556.737
1539.58	542.24
1540.5	530.214
1541.42	523.819
1542.33	514.819
1543.25	507.231
1544.17	501.993
1545.09	499.635
1546.01	497.25
1546.92	496.875
1547.84	496.792
1548.76	497.615
1549.67	498.837
1550.59	499.782
1551.51	500.378
1552.42	499.868
1553.34	498.542
1554.25	495.568
1555.17	490.884
1556.08	485.849
1557	479.23
1557.91	473.165
1558.82	466.581
1559.74	459.808
1560.65	453.334
1561.56	447.885
1562.48	443.075
1563.39	438.776
1564.3	435.734
1565.21	434.006
1566.13	432.869
1567.04	432.38
1567.95	432.56
1568.86	432.191
1569.77	432.339
1570.68	431.995
1571.59	431.372
1572.5	430.591
1573.41	430.096
1574.32	429.726
1575.23	428.91
1576.14	428.05
1577.05	427.522
1577.95	427.45
1578.86	427.699
1579.77	428.222
1580.68	428.474
1581.59	428.56
1582.49	428.606
1583.4	429.153
1584.31	430.565
1585.21	430.846
1586.12	430.564
1587.02	429.583
1587.93	429.435
1588.84	429.545
1589.74	429.42
1590.65	429.676
1591.55	430.542
1592.45	431.969
1593.36	433.759
1594.26	436.308
1595.17	438.929
1596.07	441.327
1596.97	443.992
1597.87	446.479
1598.78	448.929
1599.68	451.236
1600.58	453.666
1601.48	456.141
1602.38	458.732
1603.29	461.116
1604.19	463.002
1605.09	464.486
1605.99	465.107
1606.89	465.594
1607.79	466.436
1608.69	467.21
1609.59	466.848
1610.49	466.603
1611.38	464.886
1612.28	463.005
1613.18	460.866
1614.08	457.572
1614.98	453.867
1615.87	449.723
1616.77	446.144
1617.67	442.878
1618.57	440.171
1619.46	437.956
1620.36	436.41
1621.25	435.636
1622.15	435.054
1623.05	434.61
1623.94	434.41
1624.84	434.552
1625.73	435.076
1626.62	435.435
1627.52	435.308
1628.41	434.292
1629.31	433.424
1630.2	432.48
1631.09	432.408
1631.99	432.237
1632.87	431.035
1633.8	430.655
1634.73	430.31
1635.65	429.832
1636.58	429.741
1637.51	430.164
1638.44	430.237
1639.37	431.126
1640.29	431.533
1641.22	431.419
1642.15	431.473
1643.08	431.813
1644	432.281
1644.93	432.101
1645.85	431.684
1646.78	431.105
1647.71	431.146
1648.63	431.176
1649.56	431.217
1650.48	430.656
1651.41	429.014
1652.33	427.81
1653.26	426.541
1654.18	425.323
1655.1	424.409
1656.03	423.496
1656.95	422.978
1657.87	422.976
1658.8	422.599
1659.72	422.76
1660.64	422.325
1661.56	421.448
1662.49	420.346
1663.41	419.978
1664.33	419.847
1665.25	419.725
1666.17	419.393
1667.09	419.195
1668.02	418.418
1668.94	417.66
1669.86	416.275
1670.78	415.118
1671.7	413.42
1672.62	412.125
1673.53	409.947
1674.45	408.255
1675.37	406.918
1676.29	406.32
1677.21	406.251
1678.13	405.889
1679.05	405.317
1679.96	404.8
1680.88	404.15
1681.8	402.971
1682.72	401.766
1683.63	400.823
1684.55	399.889
1685.47	398.552
1686.38	396.02
1687.3	394.043
1688.21	391.444
1689.13	389.075
1690.05	386.839
1690.96	385.543
1691.87	384.372
1692.79	382.339
1693.7	381.19
1694.62	380.151
1695.53	379.228
1696.45	378.509
1697.36	377.453
1698.27	376.613
1699.19	375.663
1700.1	374.759
1701.01	374.037
1701.92	373.127
1702.84	372.088
1703.75	371.113
1704.66	370.31
1705.57	370.82
1706.48	370.235
1707.39	369.046
1708.3	367.508
1709.21	366.286
1710.12	364.415
1711.03	363.142
1711.95	362.737
1712.85	362.408
1713.76	361.558
1714.67	360.133
1715.58	358.464
1716.49	357.231
1717.4	355.879
1718.31	355.245
1719.22	354.522
1720.12	354.09
1721.03	354.894
1721.94	355.75
1722.85	356.742
1723.75	357.72
1724.66	357.243
1725.57	356.4
1726.47	354.819
1727.38	353.73
1728.28	353.026
1729.19	352.911
1730.1	351.958
1731	351.021
1731.91	349.475
1732.81	348.232
1733.71	347.232
1734.62	346.057
1735.52	344.104
1736.43	343.797
1737.33	344.486
1738.23	345.903
1739.14	347.938
1740.04	348.794
1740.94	348.977
1741.85	349.115
1742.75	348.927
1743.65	348.773
1744.55	348.177
1745.45	347.749
1746.35	347.706
1747.26	346.37
1748.16	344.449
1749.06	343.606
1749.96	342.75
1750.86	342.927
1751.76	343.23
1752.66	343.326
1753.56	342.847
1754.46	343.502
1755.36	343.317
1756.25	342.134
1757.15	340.228
1758.05	338.475
1758.95	336.965
1759.85	335.293
1760.75	332.33
1761.64	329.471
1762.54	327.219
1763.44	325.687
1764.33	324.091
1765.23	322.843
1766.13	322.792
1767.02	323.127
1767.92	323.11
1768.82	323.443
1769.71	323.476
1770.61	324.024
1771.5	324.799
1772.4	325.172
1773.29	325.921
1774.19	326.817
1775.08	327.451
1775.97	328.712
1776.87	329.346
1777.76	329.767
1778.65	328.776
1779.55	328.689
1780.44	327.407
1781.33	324.853
1782.23	322.821
1783.12	320.504
1784.01	318.827
1784.9	317.082
1785.79	315.412
1786.68	313.968
1787.58	312.895
1788.47	312.101
1789.36	311.499
1790.25	311.055
1791.14	311.078
1792.03	312.652
1792.92	313.932
1793.81	315.978
1794.7	318.35
1795.58	319.869
1796.47	311.193
1797.36	309.502
1798.25	306.109
1799.14	302.785
