Acq. time (s)=	15
Accumulations=	2
Range (cm-¹)=	600...1800
Windows=	2
Autofocus=	Off
AutoExposure=	Off
Spike filter=	Multiple accum.
Delay time (s)=	1
Binning=	1
Readout mode=	Signal
DeNoise=	Standard
ICS correction=	Off
Dark correction=	Off
Inst. Process=	Off
Instrument=	XploRA
Detector=	Syncerity
Objective=	x20LWD
Grating=	1200 gr/mm
Filter=	25%
Laser (nm)=	785 
Slit (µm)=	100 
Hole (µm)=	300 
Laser pol=	None
Raman pol=	None
Output=	Camera
StageXY=	Marzhauser
StageZ=	
X (µm)=	-1549.8
Y (µm)=	-3432.8
Project=	
Sample=	
Site=	
Title=	CLsoP1 f6
Remark=	
Date=	06.04.2022 11:52
Acquired=	06.04.2022 11:52:04
600.731	2109.44
601.9	2118.25
603.069	2128.94
604.238	2140.32
605.406	2151.29
606.575	2162.56
607.743	2173.51
608.91	2183.74
610.078	2193.42
611.245	2202.05
612.411	2209.5
613.579	2215.87
614.745	2221.74
615.91	2226.83
617.076	2231.38
618.241	2235.47
619.407	2238.99
620.571	2240.88
621.735	2242.24
622.9	2242.94
624.063	2243.08
625.227	2243.4
626.39	2244.83
627.553	2246.64
628.716	2248.04
629.879	2249.71
631.041	2250.9
632.203	2254.71
633.364	2249.58
634.526	2241.37
635.686	2231.89
636.847	2221.89
638.007	2204.17
639.167	2210.95
640.327	2216.67
641.486	2227.27
642.645	2228.42
643.805	2217.85
644.963	2211.38
646.122	2205.75
647.28	2201.38
648.438	2197.73
649.594	2194.83
650.752	2192.95
651.909	2191.4
653.065	2190.06
654.221	2188.13
655.377	2186.52
656.533	2183.86
657.688	2181.11
658.843	2178.37
659.998	2175.88
661.153	2173.77
662.307	2172.72
663.461	2172.45
664.615	2172.61
665.768	2173.47
666.921	2174.5
668.074	2176.4
669.226	2179
670.379	2181.78
671.53	2184.51
672.682	2186.97
673.833	2188.78
674.984	2190.61
676.135	2191.54
677.285	2191.5
678.436	2191.23
679.586	2190.48
680.735	2189.63
681.884	2188.72
683.033	2187.95
684.182	2187.88
685.33	2187.55
686.478	2187.09
687.626	2186.56
688.774	2185.86
689.921	2184.85
691.068	2183.42
692.214	2181.49
693.361	2179.88
694.507	2177.87
695.652	2174.89
696.798	2170.09
697.943	2163.53
699.088	2155.63
700.233	2147.41
701.377	2138.62
702.521	2130.31
703.665	2122.08
704.808	2114.32
705.951	2106.98
707.094	2100.55
708.236	2094.77
709.379	2089.81
710.522	2086.15
711.663	2082.85
712.804	2080.28
713.946	2078.85
715.086	2077.89
716.227	2076.85
717.367	2075.62
718.507	2073.59
719.647	2071.55
720.786	2069.58
721.925	2067.4
723.064	2065.98
724.202	2064.49
725.341	2063.6
726.479	2061.92
727.616	2058.93
728.753	2056
729.89	2053.33
731.027	2051.05
732.163	2050.68
733.3	2050.48
734.436	2050.31
735.572	2050.66
736.707	2060.94
737.842	2073.78
738.977	2088.65
740.111	2107.57
741.246	2123.31
742.379	2136.83
743.513	2137.83
744.646	2134.17
745.779	2124.62
746.911	2113.05
748.044	2102.27
749.176	2091.57
750.308	2081.45
751.44	2071.41
752.571	2062.76
753.702	2060.45
754.833	2052.74
755.963	2043.47
757.093	2033.21
758.223	2022.11
759.353	2009.84
760.481	1998.41
761.61	1987.37
762.74	1976.71
763.867	1967.07
764.996	1957.67
766.124	1948.73
767.251	1940.05
768.378	1931.7
769.505	1923.71
770.631	1915.99
771.758	1908.57
772.884	1901.67
774.01	1894.97
775.136	1888.59
776.261	1882.55
777.386	1876.99
778.51	1872.11
779.634	1868.55
780.758	1867.84
781.882	1866.6
783.006	1865.2
784.129	1863.08
785.252	1860.24
786.375	1856.34
787.497	1851.67
788.619	1845.6
789.741	1838.18
790.862	1829.93
791.983	1820.29
793.104	1810.51
794.225	1800.93
795.345	1792.95
796.465	1785.62
797.585	1779.41
798.704	1774.39
799.823	1770.09
800.943	1767.01
802.061	1764.73
803.179	1763.37
804.297	1760.63
805.415	1757.46
806.532	1751.2
807.649	1741.23
808.766	1723.77
809.883	1734.08
810.999	1744.71
812.115	1753.9
813.231	1760.68
814.346	1763.75
815.461	1760.79
816.577	1755.46
817.691	1751.65
818.805	1749.19
819.919	1747.74
821.033	1749.97
822.146	1744.99
823.259	1741.62
824.372	1738.57
825.485	1736.08
826.597	1734.02
827.709	1732.38
828.82	1730.9
829.932	1729.71
831.043	1728.64
832.154	1727.6
833.265	1726.21
834.375	1724.33
835.484	1721.86
836.594	1718.68
837.704	1714.89
838.813	1710.13
839.922	1704.28
841.03	1697.61
842.138	1690.65
843.246	1682.92
844.354	1675.5
845.461	1669.85
846.568	1665.93
847.675	1663.97
848.782	1662.63
849.888	1661.58
850.994	1660.22
852.1	1658.75
853.205	1656.96
854.31	1655.02
855.415	1652.72
856.52	1649.51
857.624	1645.86
858.727	1641.87
859.831	1637.76
860.935	1634.12
862.038	1629.81
863.141	1625.46
864.243	1620.21
865.345	1614.32
866.448	1608.61
867.549	1603.05
868.651	1597.61
869.751	1592.54
870.852	1588.48
871.953	1584.23
873.053	1579.95
874.153	1576.12
875.253	1572.66
876.352	1569.77
877.451	1567.48
878.55	1566.36
879.648	1567.35
880.747	1568.42
881.845	1567.53
882.943	1565.18
884.039	1560.45
885.137	1555.28
886.233	1549.96
887.33	1544.66
888.426	1540.28
889.522	1536.57
890.618	1532.85
891.713	1529.36
892.808	1526.3
893.903	1523.7
894.998	1521.68
896.092	1519.99
897.186	1519.36
898.28	1520.8
899.374	1522.46
900.467	1524.21
901.559	1526.1
902.652	1527.85
903.744	1528.54
904.836	1529.34
905.927	1530.17
907.019	1531.3
908.111	1532.17
909.201	1533.19
910.291	1533.77
911.382	1534.29
912.472	1534.42
913.562	1534.37
914.651	1533.99
915.741	1533.19
916.829	1533.25
917.918	1533.49
919.006	1530.42
920.094	1524.77
921.181	1515.95
922.269	1505.64
923.356	1494.88
924.443	1484.45
925.53	1474.88
926.616	1465.27
927.702	1456.3
928.788	1447.59
929.873	1439.59
930.958	1432.4
932.044	1425.54
933.128	1420.1
934.212	1416.93
935.296	1420.45
936.38	1419.13
937.463	1416.38
938.547	1412.8
939.63	1408.64
940.712	1403.58
941.795	1398.4
942.876	1393.42
943.958	1388.65
945.039	1385.12
946.121	1381.5
947.202	1378.36
948.282	1375.75
949.363	1373.63
950.443	1372.42
951.522	1372.51
952.602	1374.07
953.681	1375.65
954.76	1377.48
955.839	1379.73
956.917	1381.66
957.995	1383.28
959.073	1384.45
960.151	1384.81
961.228	1384.42
962.305	1383.18
963.381	1381.23
964.458	1378.8
965.534	1375.37
966.61	1371.55
967.685	1367.43
968.76	1363.39
969.836	1359.69
970.91	1356.66
971.984	1354.56
973.059	1352.18
974.133	1350.53
975.206	1349.75
976.279	1350.1
977.352	1351.87
978.425	1355.62
979.497	1361.42
980.57	1368.39
981.642	1376.99
982.714	1386.4
983.785	1393.57
984.856	1397.2
985.927	1398.84
986.997	1399.13
988.067	1398.03
989.137	1396.06
990.206	1393.29
991.276	1390.31
992.345	1385.21
993.413	1379.67
994.482	1374.12
995.55	1369.35
996.619	1366.46
997.686	1364.35
998.754	1363.65
999.821	1364.33
1000.89	1365.85
1001.95	1362.61
1003.02	1358.34
1004.09	1352.23
1005.15	1345.09
1006.22	1335.18
1007.28	1324.81
1008.35	1314.3
1009.41	1304.48
1010.48	1294.98
1011.54	1285.88
1012.6	1277.4
1013.67	1269.43
1014.73	1261.99
1015.79	1256.18
1016.86	1251.72
1017.92	1247.49
1018.98	1243.59
1020.04	1239.8
1021.1	1235.23
1022.16	1230.78
1023.23	1226.45
1024.29	1222.18
1025.35	1217.97
1026.41	1213.64
1027.47	1209.46
1028.53	1205.48
1029.58	1201.83
1030.64	1198.28
1031.7	1195.02
1032.76	1192.11
1033.82	1189.65
1034.88	1187.62
1035.93	1186.2
1036.99	1185.03
1038.05	1184.36
1039.11	1184.42
1040.16	1185.07
1041.22	1185.89
1042.27	1188.85
1043.33	1192.55
1044.38	1195.35
1045.44	1195.81
1046.49	1195.01
1047.55	1193.08
1048.6	1189.24
1049.66	1184.17
1050.71	1178.07
1051.76	1171.38
1052.82	1164.76
1053.87	1158.57
1054.92	1152.28
1055.97	1146.4
1057.03	1141.45
1058.08	1137.68
1059.13	1136.23
1060.18	1136.27
1061.23	1142.24
1062.28	1143.58
1063.33	1145.66
1064.38	1148.11
1065.43	1151.82
1066.48	1155.07
1067.53	1158.05
1068.58	1158.47
1069.63	1157.02
1070.68	1154.97
1071.72	1152.26
1072.77	1148.97
1073.82	1144.93
1074.87	1139.85
1075.91	1134.01
1076.96	1127.32
1078.01	1122.18
1079.05	1119.32
1080.1	1116.83
1081.14	1114.13
1082.19	1111.67
1083.23	1109.83
1084.28	1108.43
1085.32	1107.01
1086.37	1105.52
1087.41	1103.95
1088.46	1102.02
1089.5	1099.53
1090.54	1096.95
1091.58	1094.09
1092.63	1091.08
1093.67	1087.85
1094.71	1083.84
1095.75	1079.71
1096.79	1075.74
1097.83	1072.01
1098.88	1069.22
1099.92	1067.78
1100.96	1066.97
1102	1066.77
1103.04	1067.33
1104.08	1068.85
1105.11	1071.01
1106.15	1074
1107.19	1077.28
1108.23	1079.83
1109.27	1080.81
1110.31	1080.81
1111.34	1079.8
1112.38	1077.62
1113.42	1074.91
1114.45	1070.96
1115.49	1066.43
1116.53	1061.41
1117.56	1056.38
1118.6	1051.75
1119.63	1047.47
1120.67	1044.22
1121.7	1041.33
1122.74	1039.34
1123.77	1038.61
1124.81	1039.34
1125.84	1040.59
1126.87	1042.65
1127.91	1044.87
1128.94	1047.29
1129.97	1049.29
1131	1050.91
1132.04	1052.71
1133.07	1054.7
1134.1	1056.77
1135.13	1060.26
1136.16	1064.94
1137.19	1072.14
1138.22	1080.51
1139.25	1090.86
1140.28	1102.97
1141.31	1118.61
1142.34	1123.71
1143.37	1125.18
1144.4	1127.81
1145.42	1123.57
1146.45	1108.12
1147.48	1106.63
1148.51	1113.38
1149.53	1127.01
1150.56	1142.66
1151.59	1157.31
1152.62	1170.88
1153.64	1181.32
1154.67	1193.2
1155.69	1199.35
1156.72	1201.8
1157.74	1200.73
1158.77	1194.48
1159.79	1188.26
1160.82	1166.28
1161.84	1147.11
1162.86	1121.25
1163.89	1094.66
1164.91	1068.36
1165.93	1047.06
1166.96	1030.04
1167.98	1017.15
1169	1007.84
1170.02	1015.6
1171.04	1013.85
1172.06	1013.67
1173.09	1013.64
1174.11	1013.08
1175.13	1010.63
1176.15	1012.49
1177.17	1017.35
1178.18	1024.96
1179.2	1033.03
1180.22	1040.72
1181.24	1047.98
1182.26	1054.68
1183.28	1060.55
1184.3	1065.35
1185.31	1069.63
1186.33	1072.41
1187.35	1071.72
1188.37	1068.66
1189.38	1062.95
1190.4	1054.56
1191.41	1043.82
1192.43	1029.51
1193.44	1016.4
1194.46	1004.04
1195.48	992.557
1196.49	981.717
1197.5	972.038
1198.52	963.501
1199.53	955.464
1200.54	948.086
1201.56	946.68
1202.57	942.604
1203.58	939.847
1204.6	938.927
1205.61	938.488
1206.62	938.236
1207.63	938.293
1208.64	938.352
1209.65	938.537
1210.66	939.133
1211.67	939.874
1212.68	940.827
1213.69	941.883
1214.7	943.126
1215.71	944.238
1216.72	945.366
1217.73	946.572
1218.74	947.307
1219.75	948.413
1220.76	949.344
1221.76	951.091
1222.77	952.76
1223.78	953.661
1224.79	953.82
1225.79	952.198
1226.8	949.996
1227.8	947.142
1228.81	943.388
1229.82	938.757
1230.82	933.167
1231.83	926.698
1232.83	918.919
1233.84	910.673
1234.84	902.227
1235.84	894.243
1236.85	886.55
1237.85	878.724
1238.85	871.274
1239.86	864.336
1240.86	858.091
1241.86	852.539
1242.86	848.1
1243.86	844.279
1244.87	841.12
1245.87	838.495
1246.87	836.68
1247.87	835.489
1248.87	834.828
1249.87	834.562
1250.87	834.758
1251.87	833.998
1252.87	832.948
1253.87	832.151
1254.86	831.565
1255.86	831.737
1256.86	831.877
1257.86	832.19
1258.86	832.61
1259.85	834.594
1260.85	836.544
1261.85	838.279
1262.84	838.759
1263.84	838.425
1264.84	837.356
1265.83	835.526
1266.83	832.995
1267.82	829.804
1268.82	826.034
1269.81	821.44
1270.81	816.378
1271.8	810.924
1272.8	806.51
1273.79	801.887
1274.78	798.404
1275.77	798.498
1276.77	797.327
1277.76	797.305
1278.75	798.284
1279.74	799.976
1280.74	802.171
1281.73	805.061
1282.72	808.729
1283.71	812.753
1284.7	816.499
1285.69	818.836
1286.68	819.335
1287.67	821.233
1288.66	819.269
1289.65	815.035
1290.64	806.937
1291.63	802.223
1292.61	795.39
1293.6	789.86
1294.59	784.859
1295.58	780.743
1296.56	777.632
1297.55	775.523
1298.54	779.519
1299.52	778.401
1300.51	777.021
1301.5	776.098
1302.48	775.536
1303.47	775.632
1304.45	775.525
1305.44	775.155
1306.42	774.008
1307.41	772.39
1308.39	769.719
1309.37	766.795
1310.36	763.61
1311.34	760.438
1312.32	757.723
1313.31	754.828
1314.29	752.457
1315.27	752.335
1316.25	753.393
1317.23	756.041
1318.22	759.638
1319.2	765.304
1320.18	763.869
1321.16	778.456
1322.14	793.916
1323.12	810.07
1324.1	825.602
1325.08	846.406
1326.06	855.919
1327.04	865.503
1328.01	868.846
1328.99	862.84
1329.97	850.408
1330.95	817.186
1331.93	798.707
1332.9	778.34
1333.88	759.382
1334.86	743.922
1335.83	730.161
1336.81	725.818
1337.79	733.813
1338.76	734.837
1339.74	735.811
1340.71	737.047
1341.69	738.298
1342.66	739.344
1343.64	739.865
1344.61	739.559
1345.58	736.556
1346.56	730.038
1347.53	724.825
1348.5	722.76
1349.48	720.529
1350.45	718.338
1351.42	715.958
1352.39	713.414
1353.36	710.76
1354.34	708.06
1355.31	705.184
1356.28	702.245
1357.25	699.133
1358.22	695.885
1359.19	692.568
1360.16	689.248
1361.13	685.746
1362.1	682.094
1363.07	678.363
1364.03	674.704
1365	671.152
1365.97	667.993
1366.94	666.569
1367.91	665.46
1368.87	665.349
1369.84	666.086
1370.81	667.33
1371.77	668.682
1372.74	670.663
1373.71	672.142
1374.67	673.497
1375.64	674.196
1376.6	674.777
1377.57	675.361
1378.53	675.813
1379.5	676.015
1380.46	675.961
1381.42	675.566
1382.39	675.012
1383.35	674.218
1384.31	673.201
1385.28	671.991
1386.24	670.496
1387.2	668.774
1388.16	666.81
1389.13	664.603
1390.09	662.147
1391.05	659.448
1392.01	656.518
1392.97	653.343
1393.93	649.928
1394.89	646.407
1395.85	642.399
1396.81	638.133
1397.77	633.837
1398.73	629.641
1399.69	626.901
1400.64	624.25
1401.6	622.905
1402.56	621.917
1403.52	621.373
1404.48	621.036
1405.43	620.904
1406.39	620.115
1407.35	619.952
1408.3	619.867
1409.26	619.847
1410.22	619.852
1411.17	619.684
1412.13	619.587
1413.08	618.933
1414.04	618.434
1414.99	617.812
1415.94	617.257
1416.9	616.878
1417.85	616.669
1418.81	617.453
1419.76	618.324
1420.71	621.306
1421.66	621.916
1422.62	622.073
1423.57	621.999
1424.52	621.895
1425.47	621.954
1426.42	621.943
1427.37	622.376
1428.33	622.423
1429.28	622.407
1430.23	622.39
1431.18	623.67
1432.13	621.949
1433.07	622.847
1434.02	624.774
1434.97	627.88
1435.92	631.994
1436.87	638.244
1437.82	640.583
1438.77	641.447
1439.71	641.604
1440.66	639.824
1441.61	627.474
1442.55	622.19
1443.5	618.043
1444.45	614.965
1445.39	613.753
1446.34	609.285
1447.28	605.284
1448.23	602.021
1449.18	599.653
1450.12	599.07
1451.06	598.588
1452.01	596.124
1452.95	591.903
1453.9	588.241
1454.84	585.046
1455.78	581.84
1456.72	578.398
1457.67	574.683
1458.61	570.704
1459.55	567.027
1460.49	564.774
1461.43	563.421
1462.38	564.254
1463.32	562.391
1464.26	560.734
1465.2	559.517
1466.14	558.489
1467.08	557.799
1468.02	557.432
1468.96	557.317
1469.9	557.324
1470.83	557.327
1471.77	557.467
1472.71	557.284
1473.65	557.21
1474.59	556.779
1475.53	555.241
1476.46	553.48
1477.4	553.551
1478.34	554.339
1479.27	555.543
1480.21	556.25
1481.14	556.492
1482.08	556.828
1483.02	556.582
1483.95	555.987
1484.89	555.858
1485.82	555.86
1486.75	556.085
1487.69	556.156
1488.62	556.347
1489.56	556.295
1490.49	555.954
1491.42	555.727
1492.35	555.441
1493.29	555.177
1494.22	554.956
1495.15	554.775
1496.08	554.778
1497.01	555.121
1497.95	555.38
1498.88	555.956
1499.81	556.509
1500.74	557.034
1501.67	555.877
1502.6	554.481
1503.53	553.177
1504.46	552.086
1505.39	552.211
1506.31	554.355
1507.24	557.849
1508.17	562.632
1509.1	568.607
1510.03	575.627
1510.95	583.781
1511.88	592.808
1512.81	602.982
1513.74	614.372
1514.66	626.64
1515.59	639.606
1516.51	653.392
1517.44	667.123
1518.37	680.68
1519.29	693.327
1520.22	705.141
1521.14	716.047
1522.06	726.307
1522.99	735.281
1523.91	742.677
1524.84	746.87
1525.76	748.569
1526.68	748.547
1527.61	745.84
1528.53	739.62
1529.45	731.924
1530.37	723.193
1531.29	713.822
1532.21	703.426
1533.14	691.831
1534.06	679.075
1534.98	665.476
1535.9	651.336
1536.82	637.218
1537.74	622.329
1538.66	607.176
1539.58	591.903
1540.5	577.995
1541.42	566.623
1542.33	557.359
1543.25	550.514
1544.17	545.606
1545.09	542.76
1546.01	541.647
1546.92	541.809
1547.84	542.399
1548.76	542.372
1549.67	542.239
1550.59	543.934
1551.51	544.296
1552.42	543.381
1553.34	540.862
1554.25	536.803
1555.17	531.191
1556.08	523.662
1557	516.947
1557.91	509.662
1558.82	502.354
1559.74	494.625
1560.65	486.901
1561.56	479.631
1562.48	473.362
1563.39	468.741
1564.3	465.754
1565.21	463.208
1566.13	459.567
1567.04	456.082
1567.95	452.435
1568.86	449.087
1569.77	444.622
1570.68	442.652
1571.59	441.3
1572.5	440.415
1573.41	440.292
1574.32	440.662
1575.23	439.151
1576.14	438.437
1577.05	435.969
1577.95	434.964
1578.86	433.789
1579.77	432.683
1580.68	431.742
1581.59	430.937
1582.49	429.908
1583.4	428.574
1584.31	427.414
1585.21	426.066
1586.12	424.974
1587.02	423.92
1587.93	423.227
1588.84	422.38
1589.74	421.422
1590.65	419.943
1591.55	419.787
1592.45	419.656
1593.36	418.727
1594.26	417.804
1595.17	417.503
1596.07	417.575
1596.97	417.991
1597.87	418.918
1598.78	420.412
1599.68	421.472
1600.58	421.958
1601.48	422.286
1602.38	423.277
1603.29	423.117
1604.19	422.335
1605.09	421.685
1605.99	420.812
1606.89	420.01
1607.79	418.207
1608.69	416.872
1609.59	415.492
1610.49	413.582
1611.38	411.266
1612.28	408.433
1613.18	404.722
1614.08	400.901
1614.98	397.016
1615.87	393.38
1616.77	389.862
1617.67	386.226
1618.57	382.199
1619.46	378.778
1620.36	376.139
1621.25	374.492
1622.15	372.973
1623.05	371.435
1623.94	370.819
1624.84	370.439
1625.73	369.834
1626.62	369.194
1627.52	368.51
1628.41	367.747
1629.31	366.368
1630.2	364.49
1631.09	363.088
1631.99	360.917
1632.87	360.201
1633.8	360.338
1634.73	361.65
1635.65	360.714
1636.58	359.194
1637.51	356.359
1638.44	354.429
1639.37	352.669
1640.29	351.003
1641.22	349.812
1642.15	348.641
1643.08	347.306
1644	346.046
1644.93	344.76
1645.85	344.306
1646.78	343.573
1647.71	343.2
1648.63	343.713
1649.56	347.064
1650.48	347.56
1651.41	348.383
1652.33	348.125
1653.26	348.586
1654.18	349.235
1655.1	350.522
1656.03	350.43
1656.95	349.822
1657.87	349.457
1658.8	349.111
1659.72	347.759
1660.64	345.192
1661.56	342.845
1662.49	340.563
1663.41	337.668
1664.33	335.477
1665.25	332.881
1666.17	330.392
1667.09	328.208
1668.02	326.624
1668.94	325.415
1669.86	325.061
1670.78	324.484
1671.7	324.121
1672.62	324.521
1673.53	323.87
1674.45	322.796
1675.37	322.137
1676.29	321.958
1677.21	320.845
1678.13	319.34
1679.05	317.546
1679.96	316.8
1680.88	316.414
1681.8	315.924
1682.72	316.045
1683.63	316.276
1684.55	316.023
1685.47	317.311
1686.38	318.262
1687.3	319.119
1688.21	320.476
1689.13	320.819
1690.05	321.009
1690.96	320.406
1691.87	319.454
1692.79	318.992
1693.7	318.376
1694.62	317.327
1695.53	316.122
1696.45	314.667
1697.36	313.214
1698.27	312.233
1699.19	311.138
1700.1	309.395
1701.01	307.111
1701.92	305.197
1702.84	304.025
1703.75	303.544
1704.66	302.344
1705.57	301.622
1706.48	301.228
1707.39	300.417
1708.3	300.103
1709.21	299.184
1710.12	299.265
1711.03	299.544
1711.95	298.936
1712.85	298.013
1713.76	296.92
1714.67	296.548
1715.58	296.385
1716.49	295.524
1717.4	294.63
1718.31	293.499
1719.22	291.868
1720.12	290.236
1721.03	288.492
1721.94	286.771
1722.85	284.312
1723.75	282.252
1724.66	280.184
1725.57	278.79
1726.47	278.304
1727.38	277.94
1728.28	278.281
1729.19	278.536
1730.1	278.208
1731	277.577
1731.91	277.124
1732.81	276.772
1733.71	276.124
1734.62	275.609
1735.52	275.039
1736.43	273.936
1737.33	272.381
1738.23	271.789
1739.14	271.049
1740.04	270.286
1740.94	269.809
1741.85	269.355
1742.75	269.875
1743.65	270.768
1744.55	271.066
1745.45	271.822
1746.35	272.363
1747.26	273.059
1748.16	273.894
1749.06	274.719
1749.96	276.117
1750.86	276.45
1751.76	276.417
1752.66	276.015
1753.56	274.749
1754.46	274.163
1755.36	273.674
1756.25	272.749
1757.15	272.568
1758.05	272.488
1758.95	272.175
1759.85	271.798
1760.75	271.474
1761.64	270.657
1762.54	269.466
1763.44	268.154
1764.33	267.605
1765.23	266.738
1766.13	265.667
1767.02	265.335
1767.92	264.817
1768.82	264.253
1769.71	263.667
1770.61	263.549
1771.5	263.869
1772.4	264.168
1773.29	264.718
1774.19	264.918
1775.08	265.436
1775.97	265.637
1776.87	265.03
1777.76	264.301
1778.65	264.077
1779.55	263.408
1780.44	262.694
1781.33	261.352
1782.23	259.993
1783.12	258.145
1784.01	256.672
1784.9	255.426
1785.79	253.836
1786.68	252.467
1787.58	251.517
1788.47	250.845
1789.36	250.198
1790.25	249.003
1791.14	248.048
1792.03	247.568
1792.92	247.45
1793.81	247.515
1794.7	247.255
1795.58	248.819
1796.47	250.363
1797.36	251.765
1798.25	251.847
1799.14	250.149
