Acq. time (s)=	15
Accumulations=	2
Range (cm-¹)=	600...1800
Windows=	2
Autofocus=	Off
AutoExposure=	Off
Spike filter=	Multiple accum.
Delay time (s)=	1
Binning=	1
Readout mode=	Signal
DeNoise=	Standard
ICS correction=	Off
Dark correction=	Off
Inst. Process=	Off
Instrument=	XploRA
Detector=	Syncerity
Objective=	x20LWD
Grating=	1200 gr/mm
Filter=	25%
Laser (nm)=	785 
Slit (µm)=	100 
Hole (µm)=	300 
Laser pol=	None
Raman pol=	None
Output=	Camera
StageXY=	Marzhauser
StageZ=	
X (µm)=	-17285.3
Y (µm)=	5610.7
Project=	
Sample=	
Site=	
Title=	T1
Remark=	
Date=	27.10.2021 15:27
Operator=	
Power=	
Acquired=	27.10.2021 15:27:27
600.089	602.937
601.257	610.826
602.426	616.009
603.594	622.931
604.763	627.282
605.93	632.485
607.098	635.73
608.264	638.839
609.431	641.712
610.598	643.572
611.764	645.24
612.93	646.707
614.096	648.009
615.261	649.21
616.426	650.469
617.591	651.919
618.756	654.179
619.92	655.453
621.084	657.967
622.247	660.119
623.411	662.184
624.574	666.038
625.736	669.136
626.899	671.086
628.061	672.747
629.223	671.839
630.385	671.265
631.546	670.965
632.706	669.628
633.867	667.567
635.028	664.918
636.188	661.492
637.348	658.779
638.507	656.02
639.667	653.621
640.826	651.52
641.984	650.083
643.142	648.19
644.3	647.261
645.458	646.622
646.616	646.531
647.773	646.463
648.93	646.614
650.086	646.152
651.243	645.554
652.399	645.098
653.555	645.423
654.71	645.066
655.865	643.194
657.02	641.904
658.174	641.348
659.329	641.397
660.483	642.416
661.637	643.765
662.79	644.503
663.944	644.733
665.096	644.416
666.249	644.541
667.401	644.169
668.552	643.21
669.705	643.323
670.856	643.707
672.007	642.763
673.158	642.102
674.308	641.706
675.458	641.55
676.609	641.707
677.757	642.211
678.907	643.321
680.057	646.205
681.205	648.827
682.353	651.188
683.502	652.643
684.649	653.536
685.797	653.67
686.944	653.117
688.091	651.613
689.238	651.205
690.385	649.612
691.53	647.711
692.676	643.617
693.822	641.649
694.967	639.406
696.112	637.436
697.257	635.467
698.401	633.487
699.545	632.923
700.689	631.863
701.832	629.747
702.975	627.134
704.119	625.024
705.261	623.568
706.403	622.01
707.546	622.011
708.688	621.861
709.829	621.256
710.97	620.249
712.11	620.859
713.252	621.773
714.392	621.898
715.532	620.666
716.672	619.621
717.811	618.671
718.95	618.231
720.089	617.032
721.227	615.063
722.366	613.711
723.504	610.386
724.642	606.828
725.779	604.89
726.916	604.024
728.053	604.595
729.19	605.25
730.326	606.046
731.462	607.195
732.597	607.8
733.733	608.822
734.868	610.321
736.003	612.362
737.137	614.141
738.272	615.854
739.405	617.969
740.539	620.971
741.672	622.927
742.805	623.143
743.938	622.98
745.071	622.321
746.203	621.253
747.335	619.743
748.467	617.913
749.598	615.655
750.728	612.955
751.86	609.84
752.99	605.888
754.12	601.669
755.25	597.249
756.38	594.29
757.509	590.831
758.638	587.607
759.767	584.759
760.896	582.456
762.023	580.534
763.152	578.971
764.279	577.643
765.406	576.678
766.533	575.545
767.66	573.192
768.786	571.998
769.912	571.425
771.038	570.365
772.164	568.841
773.289	566.807
774.414	565.8
775.539	566.485
776.664	566.706
777.787	566.763
778.911	566.915
780.035	564.17
781.158	560.961
782.281	559.192
783.404	557.898
784.526	556.851
785.648	556.233
786.77	556.303
787.891	555.49
789.013	553.217
790.134	550.62
791.254	548.073
792.374	545.864
793.494	545.234
794.614	543.456
795.734	542.13
796.853	541.172
797.973	539.443
799.091	537.969
800.21	536.63
801.327	535
802.445	532.996
803.563	530.928
804.68	528.953
805.797	527.263
806.914	526.074
808.03	525.524
809.146	525.284
810.262	525.223
811.377	524.826
812.492	523.87
813.608	523.203
814.722	522.691
815.836	522.716
816.95	522.958
818.064	523.793
819.177	524.071
820.291	524.044
821.404	523.663
822.517	522.98
823.628	521.97
824.741	520.521
825.852	519.099
826.964	518.686
828.075	518.221
829.186	517.492
830.297	516.712
831.407	515.662
832.517	513.963
833.627	512.636
834.736	511.88
835.846	511.917
836.954	512.054
838.063	512.441
839.171	513.502
840.279	514.857
841.387	516.573
842.494	517.739
843.602	519.003
844.709	519.138
845.815	518.852
846.922	518.237
848.028	517.477
849.134	517.168
850.239	514.81
851.344	512.517
852.449	509.766
853.554	507.291
854.658	504.696
855.762	503.574
856.865	501.637
857.969	498.827
859.073	496.244
860.175	493.712
861.278	491.646
862.38	489.046
863.482	487.458
864.584	485.61
865.686	484.233
866.787	482.712
867.887	480.323
868.988	479.152
870.088	478.072
871.189	477.162
872.288	476.935
873.387	476.567
874.487	475.756
875.586	474.798
876.684	473.447
877.783	472.995
878.881	472.231
879.979	471.979
881.076	470.935
882.173	469.993
883.27	469.735
884.366	469.756
885.463	470.768
886.559	470.768
887.655	469.761
888.75	469.3
889.845	469.235
890.94	469.286
892.035	469.068
893.13	467.454
894.223	465.954
895.318	464.995
896.411	464.368
897.504	464.453
898.597	464.438
899.69	463.774
900.782	462.795
901.874	461.895
902.966	462.119
904.057	462.817
905.148	463.533
906.239	464.426
907.33	465.726
908.42	467.511
909.51	468.532
910.601	469.704
911.69	470.17
912.779	470.558
913.868	467.709
914.956	466.14
916.045	465.228
917.133	465.343
918.221	466.15
919.308	465.53
920.396	461.701
921.483	456.105
922.569	450.312
923.656	444.711
924.742	440.838
925.827	437.777
926.913	435.247
927.999	434.274
929.083	433.099
930.168	431.573
931.253	430.419
932.337	430.581
933.42	430.94
934.504	432.252
935.587	432.915
936.67	432.655
937.753	432.265
938.835	431.706
939.917	431.167
940.999	430.607
942.081	430.02
943.162	429.126
944.243	428.383
945.324	427.607
946.404	427.014
947.484	425.29
948.565	422.923
949.644	419.823
950.723	416.929
951.802	414.424
952.881	412.325
953.96	410.583
955.038	409.371
956.116	408.758
957.193	408.576
958.27	408.862
959.347	409.568
960.425	410.654
961.501	411.784
962.577	412.511
963.653	412.934
964.729	411.565
965.804	410.555
966.879	409.946
967.954	408.933
969.029	407.368
970.102	406.647
971.177	406.736
972.25	407.347
973.324	408.003
974.397	407.847
975.469	408.552
976.542	409.635
977.614	410.874
978.686	413.3
979.758	415.607
980.83	417.802
981.9	420.797
982.972	422.351
984.042	423.298
985.112	424.636
986.182	422.742
987.252	419.931
988.321	417.027
989.39	413.882
990.46	412.568
991.528	411.734
992.596	411.478
993.664	413.021
994.732	414.483
995.8	415.263
996.867	414.997
997.934	415.915
999	416.065
1000.07	416.444
1001.13	414.983
1002.2	413.373
1003.26	412.097
1004.33	410.159
1005.39	407.189
1006.46	403.651
1007.52	399.346
1008.59	393.534
1009.65	388.321
1010.71	389.01
1011.78	385.109
1012.84	381.765
1013.9	378.687
1014.97	376.054
1016.03	373.958
1017.09	372.085
1018.15	370.696
1019.21	369.894
1020.27	369.114
1021.33	368.057
1022.39	367.001
1023.46	365.743
1024.51	364.46
1025.57	362.805
1026.63	360.856
1027.69	359.436
1028.75	357.689
1029.81	355.742
1030.87	354.068
1031.93	352.095
1032.98	350.741
1034.04	350.436
1035.1	350.755
1036.15	351.57
1037.21	351.874
1038.27	351.632
1039.32	353.383
1040.38	356.032
1041.44	358.748
1042.49	360.819
1043.55	362.609
1044.6	364.494
1045.65	365.529
1046.71	365.838
1047.76	366.042
1048.82	364.78
1049.87	363.721
1050.92	362.652
1051.97	361.399
1053.03	359.372
1054.08	357.623
1055.13	356.209
1056.18	355.549
1057.23	354.666
1058.28	353.345
1059.33	352.745
1060.38	352.121
1061.44	351.362
1062.48	350.677
1063.53	350.755
1064.58	350.519
1065.63	350.204
1066.68	349.464
1067.73	348.698
1068.78	347.349
1069.83	346.346
1070.87	345.537
1071.92	345.185
1072.97	344.544
1074.01	344.141
1075.06	343.162
1076.11	341.877
1077.15	340.15
1078.2	338.325
1079.24	336.094
1080.29	334.568
1081.33	332.593
1082.38	331.494
1083.42	330.664
1084.47	330.384
1085.51	329.328
1086.55	328.173
1087.6	327.432
1088.64	327.233
1089.68	327.251
1090.72	327.747
1091.77	328.554
1092.81	328.898
1093.85	330.095
1094.89	330.883
1095.93	331.585
1096.97	331.943
1098.01	332.404
1099.05	332.33
1100.09	331.767
1101.13	330.969
1102.17	329.597
1103.21	329.07
1104.25	327.719
1105.29	326.643
1106.33	325.692
1107.36	324.591
1108.4	323.96
1109.44	323.597
1110.48	323.125
1111.51	322.123
1112.55	321.841
1113.58	322.351
1114.62	322.239
1115.66	323.387
1116.69	323.14
1117.73	322.139
1118.76	321.094
1119.8	319.118
1120.83	317.525
1121.86	316.265
1122.9	315.987
1123.93	315.014
1124.96	313.1
1126	311.472
1127.03	309.47
1128.06	308.636
1129.1	309.602
1130.13	310.79
1131.16	313.363
1132.19	315.164
1133.22	317.068
1134.25	319.212
1135.28	322.085
1136.31	324.366
1137.34	326.769
1138.37	329.802
1139.4	334.686
1140.43	336.178
1141.46	336.369
1142.49	336.477
1143.51	336.964
1144.54	335.759
1145.57	336.26
1146.6	335.261
1147.62	337.349
1148.65	340.772
1149.68	343.771
1150.7	345.389
1151.73	349.88
1152.76	354.643
1153.78	358.993
1154.81	363.075
1155.83	366.138
1156.85	365.789
1157.88	359.58
1158.9	354.676
1159.93	346.337
1160.95	339.625
1161.97	332.846
1163	326.47
1164.02	319.803
1165.04	313.523
1166.06	308.985
1167.09	306.616
1168.11	304.011
1169.13	301.881
1170.15	300.647
1171.17	301.487
1172.19	303.714
1173.21	305.584
1174.23	308.87
1175.25	312.296
1176.27	315.111
1177.29	317.875
1178.31	318.972
1179.33	319.504
1180.34	319.803
1181.36	319.986
1182.38	319.979
1183.4	319.939
1184.41	319.727
1185.43	319.278
1186.45	317.94
1187.46	317.365
1188.48	315.142
1189.5	313.11
1190.51	311.218
1191.53	309.095
1192.54	306.372
1193.56	303.877
1194.57	301.455
1195.59	299.116
1196.6	296.426
1197.61	293.98
1198.63	291.689
1199.64	289.795
1200.65	288.374
1201.66	287.053
1202.68	286.347
1203.69	286.448
1204.7	286.42
1205.71	286.621
1206.72	279.884
1207.73	281.404
1208.74	284.102
1209.75	289.116
1210.76	289.176
1211.77	288.788
1212.78	288.334
1213.79	288.146
1214.8	287.698
1215.81	287.711
1216.82	286.811
1217.83	286.798
1218.84	286.744
1219.84	287.197
1220.85	287.236
1221.86	287.418
1222.86	287.242
1223.87	287.365
1224.88	287.522
1225.88	286.353
1226.89	285.213
1227.89	284.074
1228.9	282.897
1229.9	281.787
1230.91	280.398
1231.91	277.798
1232.92	274.704
1233.92	271.735
1234.92	268.38
1235.93	265.255
1236.93	262.134
1237.93	259.046
1238.93	256.576
1239.94	256.166
1240.94	254.86
1241.94	254.815
1242.94	254.469
1243.94	254.518
1244.94	254.707
1245.94	255.001
1246.94	254.843
1247.94	255.109
1248.94	255.634
1249.94	255.989
1250.94	255.601
1251.94	255.442
1252.94	254.825
1253.94	254.961
1254.93	253.856
1255.93	254.038
1256.93	253.596
1257.93	253.354
1258.92	253.269
1259.92	253.919
1260.92	254.666
1261.91	255.693
1262.91	257.098
1263.9	258.363
1264.9	258.607
1265.89	257.725
1266.89	256.458
1267.88	255.157
1268.88	253.703
1269.87	249.872
1270.87	246.769
1271.86	244.094
1272.85	242.27
1273.85	241.573
1274.84	240.549
1275.83	240.985
1276.82	242.037
1277.81	244.086
1278.8	245.655
1279.8	247.306
1280.79	248.656
1281.78	250.007
1282.77	250.948
1283.76	251.889
1284.75	252.459
1285.74	251.777
1286.73	250.881
1287.72	249.035
1288.71	247.24
1289.69	245.415
1290.68	243.313
1291.67	241.045
1292.66	238.917
1293.64	236.991
1294.63	235.141
1295.62	234.657
1296.61	234.455
1297.59	234.798
1298.58	235.471
1299.56	236.249
1300.55	237.211
1301.53	238.339
1302.52	238.907
1303.5	239.965
1304.49	240.183
1305.47	240.166
1306.46	240.404
1307.44	239.852
1308.42	239.001
1309.41	237.726
1310.39	236.186
1311.37	233.972
1312.35	231.185
1313.34	230.582
1314.32	229.708
1315.3	229.981
1316.28	230.368
1317.26	232.57
1318.24	235.517
1319.22	238.508
1320.2	242.768
1321.18	248.644
1322.16	252.836
1323.14	256.2
1324.12	258.394
1325.1	259.654
1326.08	259.382
1327.06	258.198
1328.03	253.785
1329.01	250.07
1329.99	243.26
1330.97	237.646
1331.94	233.741
1332.92	230.249
1333.9	227.176
1334.87	223.923
1335.85	224.677
1336.82	223.947
1337.8	222.99
1338.77	221.783
1339.75	221.346
1340.72	220.101
1341.7	219.497
1342.67	218.641
1343.64	217.359
1344.62	215.882
1345.59	214.61
1346.56	212.57
1347.54	211.452
1348.51	210.248
1349.48	210.731
1350.45	211.598
1351.42	212.32
1352.39	213.227
1353.37	215.278
1354.34	215.702
1355.31	215.963
1356.28	215.851
1357.25	215.427
1358.22	214.26
1359.19	212.721
1360.16	210.854
1361.12	210.171
1362.09	209.342
1363.06	208.221
1364.03	206.76
1365	205.69
1365.96	204.876
1366.93	204.382
1367.9	204.009
1368.86	204.034
1369.83	203.971
1370.8	203.693
1371.76	202.999
1372.73	202.719
1373.69	202.481
1374.66	202.204
1375.62	202.072
1376.59	201.952
1377.55	202.21
1378.52	202.596
1379.48	203.195
1380.44	203.693
1381.41	203.437
1382.37	203.086
1383.33	203.09
1384.3	202.645
1385.26	202.382
1386.22	202.34
1387.18	202.002
1388.14	201.234
1389.1	200.583
1390.06	199.861
1391.02	198.877
1391.98	197.799
1392.94	197.225
1393.9	197.015
1394.86	196.343
1395.82	195.884
1396.78	195.43
1397.74	193.756
1398.7	192.451
1399.66	191.104
1400.61	190.184
1401.57	189.378
1402.53	188.882
1403.49	188.471
1404.44	188.035
1405.4	186.987
1406.36	186.214
1407.31	185.505
1408.27	184.507
1409.22	184.3
1410.18	184.134
1411.13	183.871
1412.09	183.993
1413.04	183.505
1414	183.42
1414.95	183.557
1415.9	183.347
1416.86	183.541
1417.81	183.777
1418.76	183.923
1419.72	183.721
1420.67	183.675
1421.62	183.752
1422.57	183.646
1423.52	183.618
1424.47	183.124
1425.42	183.495
1426.38	183.221
1427.33	184.319
1428.28	185.87
1429.23	187.36
1430.18	189.263
1431.12	191.6
1432.07	192.532
1433.02	193.7
1433.97	193.545
1434.92	192.053
1435.87	191.555
1436.82	191.183
1437.76	191.222
1438.71	194.899
1439.66	195.392
1440.6	194.757
1441.55	193.451
1442.5	192.451
1443.44	191.378
1444.39	190.33
1445.33	189.036
1446.28	187.525
1447.22	186.518
1448.17	186.495
1449.11	185.238
1450.06	183.826
1451	182.571
1451.94	181.35
1452.89	179.647
1453.83	178.157
1454.77	176.967
1455.71	176.085
1456.66	175.848
1457.6	175.33
1458.54	174.141
1459.48	173.285
1460.42	172.54
1461.36	172.105
1462.3	171.51
1463.24	170.911
1464.18	169.827
1465.12	169.679
1466.06	169.469
1467	169.486
1467.94	169.515
1468.88	170.574
1469.82	172.405
1470.76	174.026
1471.69	175.274
1472.63	176.354
1473.57	176.504
1474.51	177.054
1475.44	177.4
1476.38	177.018
1477.32	177.07
1478.25	177.16
1479.19	177.408
1480.12	177.216
1481.06	176.908
1481.99	175.808
1482.93	174.391
1483.86	173.48
1484.8	172.835
1485.73	171.985
1486.67	171.304
1487.6	171.682
1488.53	171.469
1489.47	170.951
1490.4	170.067
1491.33	168.841
1492.26	167.846
1493.19	166.873
1494.13	165.629
1495.06	164.648
1495.99	164.295
1496.92	163.628
1497.85	163.556
1498.78	162.914
1499.71	162.558
1500.64	162.91
1501.57	163.849
1502.5	165.272
1503.43	168.081
1504.36	170.902
1505.28	173.581
1506.21	176.351
1507.14	178.415
1508.07	179.875
1509	181.655
1509.92	180.525
1510.85	180.678
1511.78	183.173
1512.7	185.525
1513.63	188.022
1514.55	192.257
1515.48	195.619
1516.4	199.976
1517.33	204.619
1518.25	209.523
1519.18	215.134
1520.1	218.864
1521.03	221.238
1521.95	223.193
1522.87	224.571
1523.8	225.516
1524.72	225.027
1525.64	223.729
1526.57	222.139
1527.49	220.247
1528.41	217.995
1529.33	215.447
1530.25	211.274
1531.17	205.834
1532.1	200.248
1533.02	195.382
1533.94	189.91
1534.86	184.619
1535.78	180.534
1536.7	176.697
1537.61	173.539
1538.53	170.22
1539.45	167.739
1540.37	165.805
1541.29	164.409
1542.21	163.619
1543.12	162.774
1544.04	162.075
1544.96	161.334
1545.88	160.382
1546.79	159.858
1547.71	159.138
1548.63	158.068
1549.54	156.644
1550.46	154.893
1551.37	153.538
1552.29	151.761
1553.2	149.721
1554.12	148.278
1555.03	146.163
1555.95	144.466
1556.86	142.63
1557.77	141.078
1558.69	139.205
1559.6	137.052
1560.51	135.189
1561.42	133.457
1562.34	132.282
1563.25	131.33
1564.16	130.6
1565.07	129.915
1565.98	129.161
1566.89	128.268
1567.8	127.13
1568.71	125.754
1569.62	124.486
1570.53	123.003
1571.44	121.749
1572.35	120.473
1573.26	118.546
1574.17	117.196
1575.08	115.675
1575.99	113.921
1576.9	112.228
1577.8	110.929
1578.71	110.246
1579.62	109.835
1580.53	109.817
1581.43	109.903
1582.34	109.799
1583.25	109.266
1584.15	108.624
1585.06	108.02
1585.96	107.209
1586.87	106.736
1587.77	106.483
1588.68	106.372
1589.58	106.299
1590.49	106.301
1591.39	106.455
1592.29	106.713
1593.2	106.703
1594.1	106.419
1595	106.009
1595.91	105.887
1596.81	105.628
1597.71	105.18
1598.61	104.317
1599.51	103.292
1600.41	102.125
1601.32	100.892
1602.22	99.6657
1603.12	98.3469
1604.02	97.119
1604.92	95.7552
1605.82	94.1506
1606.72	92.7725
1607.62	91.8368
1608.51	92.3819
1609.41	91.7767
1610.31	90.9857
1611.21	90.2124
1612.11	89.54
1613.01	88.8145
1613.9	88.172
1614.8	87.4858
1615.7	86.5882
1616.59	85.7463
1617.49	84.8315
1618.39	83.9186
1619.28	83.0471
1620.18	82.2236
1621.07	81.4441
1621.97	80.74
1622.86	80.0681
1623.76	79.5233
1624.65	79.1003
1625.55	78.7064
1626.44	78.4762
1627.33	78.2996
1628.23	78.238
1629.12	78.3566
1630.01	78.2756
1630.91	76.1563
1631.8	73.3845
1632.67	70.6062
1633.6	66.6126
1634.53	65.5463
1635.46	66.1964
1636.39	66.8886
1637.31	71.4221
1638.24	73.2125
1639.17	74.8445
1640.1	72.885
1641.02	72.2732
1641.95	71.6743
1642.88	71.1217
1643.8	70.609
1644.73	70.1754
1645.65	69.7831
1646.58	69.3912
1647.5	69.0383
1648.43	68.6768
1649.35	68.3614
1650.28	68.0443
1651.2	67.7026
1652.13	67.5545
1653.05	67.4198
1653.97	67.3776
1654.9	67.332
1655.82	67.3542
1656.74	67.3816
1657.66	67.4505
1658.59	67.5618
1659.51	67.6757
1660.43	67.8454
1661.35	68.0221
1662.27	68.2434
1663.2	68.4173
1664.12	68.7118
1665.04	68.9914
1665.96	69.312
1666.88	69.6211
1667.8	69.9215
1668.72	70.1156
1669.64	70.3651
1670.56	70.5757
1671.48	70.7828
1672.4	70.9356
1673.31	70.9805
1674.23	71.011
1675.15	70.9022
1676.07	70.4104
1676.99	69.7173
1677.9	69.1411
1678.82	68.4945
1679.74	67.6688
1680.66	66.7942
1681.57	65.9843
1682.49	65.2023
1683.41	64.5278
1684.32	64.0662
1685.24	63.7558
1686.15	63.6514
1687.07	63.6997
1687.98	63.9871
1688.9	64.6951
1689.81	65.6592
1690.73	66.7759
1691.64	67.8885
1692.56	68.9319
1693.47	69.9285
1694.38	70.0195
1695.3	69.9939
1696.21	69.6206
1697.12	69.1284
1698.04	68.6191
1698.95	68.1114
1699.86	68.117
1700.77	68.4073
1701.68	68.9905
1702.6	69.9277
1703.51	68.5986
1704.42	67.4621
1705.33	66.1534
1706.24	64.8527
1707.15	63.3114
1708.06	61.8716
1708.97	60.5897
1709.88	59.4289
1710.79	58.5809
1711.7	57.986
1712.61	57.6832
1713.52	57.5765
1714.43	57.806
1715.33	58.3969
1716.24	59.0209
1717.15	59.7066
1718.06	60.3742
1718.97	61.0839
1719.87	61.5255
1720.78	62.0257
1721.69	62.5061
1722.59	62.9037
1723.5	63.2731
1724.41	63.5841
1725.31	63.7254
1726.22	63.851
1727.12	63.8249
1728.03	63.7411
1728.93	63.4717
1729.84	63.1478
1730.74	62.7723
1731.65	62.3813
1732.55	61.8573
1733.46	61.2943
1734.36	60.7178
1735.26	60.2094
1736.17	59.7273
1737.07	59.8228
1737.97	60.1818
1738.87	60.6361
1739.78	61.2999
1740.68	61.9212
1741.58	62.0731
1742.48	61.7676
1743.38	61.4233
1744.29	61.0104
1745.19	60.5908
1746.09	60.1251
1746.99	59.7528
1747.89	59.3778
1748.79	59.0205
1749.69	58.6836
1750.59	58.393
1751.49	58.1151
1752.39	57.9539
1753.29	58.1264
1754.18	58.3692
1755.08	58.5969
1755.98	58.9194
1756.88	59.2412
1757.78	59.4709
1758.67	59.7021
1759.57	59.8879
1760.47	59.7513
1761.37	59.652
1762.26	59.4096
1763.16	58.8909
1764.06	58.3864
1764.95	57.7829
1765.85	57.1684
1766.74	56.5582
1767.64	55.9338
1768.53	55.3425
1769.43	54.7716
1770.32	54.2181
1771.22	53.9528
1772.11	53.761
1773.01	53.8142
1773.9	53.9715
1774.79	54.1705
1775.69	54.3723
1776.58	54.6537
1777.47	54.9634
1778.37	55.1968
1779.26	55.6906
1780.15	55.678
1781.04	55.2921
1781.93	54.9923
1782.83	54.6607
1783.72	54.335
1784.61	54.0504
1785.5	53.7857
1786.39	53.5312
1787.28	53.3184
1788.17	53.2922
1789.06	53.2861
1789.95	53.2978
1790.84	53.3938
1791.73	53.513
1792.62	53.7485
1793.51	53.9916
1794.4	54.3155
1795.28	54.6538
1796.17	55.019
1797.06	55.4374
1797.95	55.8148
1798.84	56.2963
1799.72	56.7617
