Acq. time (s)=	15
Accumulations=	2
Range (cm-¹)=	600...1800
Windows=	2
Autofocus=	Off
AutoExposure=	Off
Spike filter=	Multiple accum.
Delay time (s)=	1
Binning=	1
Readout mode=	Signal
DeNoise=	Standard
ICS correction=	Off
Dark correction=	Off
Inst. Process=	Off
Instrument=	XploRA
Detector=	Syncerity
Objective=	x20LWD
Grating=	1200 gr/mm
Filter=	25%
Laser (nm)=	785 
Slit (µm)=	100 
Hole (µm)=	300 
Laser pol=	None
Raman pol=	None
Output=	Camera
StageXY=	Marzhauser
StageZ=	
X (µm)=	-8572.3
Y (µm)=	7936.7
Project=	
Sample=	
Site=	
Title=	CLa P1
Remark=	
Date=	15.10.2021 14:53
Operator=	
Power=	
Acquired=	15.10.2021 14:53:10
601.097	409.463
602.266	412.893
603.435	416.102
604.603	419.145
605.771	422.208
606.939	425.172
608.106	427.957
609.273	430.844
610.44	432.549
611.606	433.529
612.772	434.302
613.938	434.422
615.104	434.163
616.268	433.754
617.433	433.223
618.598	432.818
619.763	432.472
620.926	432.273
622.091	432.51
623.254	432.832
624.417	433.372
625.58	434.264
626.742	436.406
627.906	438.782
629.068	440.825
630.229	442.761
631.391	444.499
632.551	446.042
633.712	447.615
634.873	448.877
636.033	449.794
637.193	450.021
638.352	449.669
639.512	448.835
640.671	447.543
641.83	445.82
642.988	443.855
644.147	442.207
645.305	440.557
646.462	438.735
647.62	438.198
648.777	437.882
649.934	437.959
651.09	438.36
652.247	438.919
653.402	439.852
654.558	441.947
655.713	444.074
656.868	445.245
658.023	446.086
659.177	448.118
660.331	448.768
661.485	448.851
662.639	448.398
663.792	447.277
664.945	445.147
666.098	442.72
667.25	441.023
668.402	439.92
669.554	439.603
670.705	440.044
671.857	441.155
673.007	442.121
674.158	443.888
675.309	444.779
676.459	445.254
677.609	445.361
678.758	445.029
679.907	446.574
681.056	447.126
682.205	446.731
683.353	445.842
684.501	444.775
685.649	443.065
686.796	441.27
687.943	439.573
689.09	438.68
690.236	438.159
691.383	437.967
692.529	438.114
693.675	438.463
694.82	439.212
695.965	440.147
697.11	441.589
698.254	442.296
699.398	442.313
700.542	441.653
701.686	440.123
702.829	440.073
703.973	439.446
705.116	438.9
706.258	439.702
707.4	439.133
708.542	437.13
709.684	436.054
710.825	435.384
711.966	435.098
713.107	434.692
714.247	433.971
715.387	432.966
716.527	431.753
717.667	430.011
718.806	428.751
719.945	427.966
721.084	427.59
722.223	427.185
723.361	426.567
724.498	425.78
725.636	424.947
726.773	423.98
727.91	422.766
729.047	421.525
730.183	418.83
731.32	418.944
732.455	419.25
733.591	421.513
734.726	425.768
735.861	428.785
736.996	431.98
738.13	433.758
739.264	434.472
740.398	435.248
741.532	436.659
742.665	438.082
743.797	438.85
744.93	439.907
746.063	438.984
747.195	437.452
748.326	435.822
749.458	434.324
750.589	432.552
751.72	429.993
752.851	427.032
753.981	423.165
755.111	419.11
756.241	415.732
757.371	412.882
758.499	410.646
759.628	408.126
760.757	406.288
761.885	403.86
763.014	402.949
764.141	401.959
765.268	400.441
766.395	398.547
767.523	396.559
768.649	395.331
769.775	394.347
770.901	394.393
772.027	393.976
773.153	393.044
774.277	391.35
775.403	390.202
776.527	389.631
777.651	389.731
778.776	388.373
779.899	386.978
781.023	385.826
782.146	384.882
783.269	384.136
784.39	383.535
785.513	383.077
786.635	382.786
787.757	382.637
788.878	382.645
789.999	382.777
791.12	383.069
792.24	383.467
793.36	384.079
794.48	384.603
795.6	384.2
796.72	384.341
797.839	384.062
798.957	383.05
800.076	380.854
801.194	378.058
802.313	375.161
803.43	372.518
804.547	370.492
805.664	369.073
806.781	367.979
807.898	366.904
809.014	365.198
810.13	363.624
811.245	362.5
812.361	362.061
813.476	362.164
814.591	362.884
815.705	362.877
816.819	362.983
817.933	363.054
819.047	363.574
820.16	363.606
821.273	363.215
822.386	363.138
823.498	363.17
824.611	363.363
825.723	363.702
826.835	364.304
827.946	364.953
829.057	365.512
830.167	365.445
831.278	364.834
832.388	365.714
833.498	366.547
834.608	366.589
835.717	366.222
836.826	365.63
837.935	364.61
839.043	365.103
840.152	364.845
841.26	364.145
842.367	362.805
843.474	360.973
844.582	358.705
845.688	356.52
846.794	354.759
847.901	353.546
849.006	353.177
850.112	353.211
851.217	352.651
852.322	352.308
853.428	352.958
854.532	353.796
855.636	354.081
856.74	354.356
857.843	354.367
858.947	354.102
860.05	353.146
861.153	352.834
862.255	351.811
863.358	350.535
864.459	349.13
865.561	348.03
866.662	347.558
867.763	347.734
868.864	347.413
869.964	346.409
871.065	344.597
872.165	342.585
873.264	340.886
874.363	339.27
875.463	338.165
876.561	337.026
877.66	335.198
878.758	332.959
879.856	330.113
880.954	328.794
882.051	328.088
883.148	328.566
884.244	328.476
885.341	329.013
886.437	330.19
887.533	332.638
888.629	333.112
889.724	333.017
890.819	331.996
891.914	330.865
893.009	330.273
894.102	329.631
895.197	328.673
896.29	326.882
897.384	324.398
898.477	322.541
899.569	321.679
900.662	321.283
901.754	320.609
902.846	320.488
903.938	321.05
905.029	322.03
906.12	323.293
907.211	324.381
908.301	325.898
909.391	328.436
910.481	330.846
911.571	332.603
912.66	333.917
913.749	334.605
914.838	334.909
915.927	334.572
917.015	333.608
918.103	331.417
919.191	329.495
920.279	327.097
921.365	324.239
922.452	320.891
923.539	317.6
924.625	314.703
925.711	312.163
926.796	309.991
927.882	308.219
928.967	307.277
930.052	306.886
931.136	306.83
932.221	306.987
933.305	307.132
934.389	307.62
935.472	308.321
936.555	309.202
937.638	310.311
938.721	310.588
939.802	309.263
940.885	309.718
941.966	308.54
943.048	308.246
944.129	307.159
945.209	308.245
946.29	313.065
947.371	311.478
948.451	308.956
949.531	305.917
950.61	302.325
951.689	297.276
952.768	294.421
953.847	291.785
954.925	289.488
956.003	292.154
957.081	293
958.158	292.425
959.236	292.564
960.312	293.392
961.389	293.777
962.465	293.199
963.542	293.086
964.617	292.542
965.693	292.029
966.768	291.328
967.843	291.353
968.918	290.608
969.991	290.016
971.066	289.611
972.139	289.587
973.213	289.809
974.286	290.31
975.359	291.057
976.432	292.083
977.504	293.519
978.576	294.995
979.648	295.629
980.72	295.886
981.791	295.867
982.862	295.162
983.933	294.713
985.004	294.193
986.074	293.637
987.143	293.206
988.213	292.912
989.282	293.479
990.351	293.204
991.42	293.178
992.489	293.605
993.557	294.544
994.624	295.217
995.692	295.003
996.76	293.785
997.827	292.961
998.893	292.123
999.96	290.707
1001.03	289.339
1002.09	288.143
1003.16	287.578
1004.22	287.191
1005.29	286.945
1006.35	286.541
1007.42	286.238
1008.48	285.856
1009.54	285.249
1010.61	284.319
1011.67	282.079
1012.74	279.806
1013.8	278.031
1014.86	276.265
1015.92	274.385
1016.99	272.512
1018.05	270.475
1019.11	268.208
1020.17	265.389
1021.23	262.513
1022.29	259.532
1023.35	256.988
1024.41	254.952
1025.47	253.536
1026.53	252.584
1027.59	252.413
1028.65	252.617
1029.71	252.797
1030.77	253.225
1031.82	252.706
1032.88	253.337
1033.94	254.782
1035	257.112
1036.05	259.387
1037.11	261.429
1038.17	263.142
1039.22	264.557
1040.28	265.701
1041.33	266.533
1042.39	267.083
1043.44	267.333
1044.5	267.617
1045.55	266.935
1046.61	266.113
1047.66	265.129
1048.71	264.043
1049.77	262.958
1050.82	262.108
1051.87	261.232
1052.93	260.376
1053.98	259.316
1055.03	258.552
1056.08	257.899
1057.13	257.246
1058.18	256.664
1059.23	256.055
1060.29	255.483
1061.34	254.902
1062.39	254.345
1063.44	253.804
1064.48	253.253
1065.53	252.694
1066.58	252.073
1067.63	251.47
1068.68	250.629
1069.73	249.803
1070.78	249.005
1071.82	248.111
1072.87	247.149
1073.92	246.068
1074.96	245.106
1076.01	244.35
1077.06	244.463
1078.1	244.724
1079.15	245.233
1080.19	245.551
1081.24	245.836
1082.28	245.976
1083.33	245.573
1084.37	245.098
1085.41	244.807
1086.46	244.009
1087.5	243.105
1088.54	242.244
1089.59	241.595
1090.63	241.002
1091.67	240.529
1092.71	240.409
1093.76	240.305
1094.8	239.633
1095.84	239.218
1096.88	239.678
1097.92	240.855
1098.96	241.653
1100	242.128
1101.04	242.241
1102.08	242.283
1103.12	242.196
1104.16	242.08
1105.19	242.205
1106.23	242.139
1107.27	241.924
1108.31	241.265
1109.35	240.235
1110.38	238.877
1111.42	237.897
1112.46	236.402
1113.49	234.814
1114.53	232.917
1115.56	231.183
1116.6	230.263
1117.64	229.808
1118.67	230.028
1119.71	230.102
1120.74	230.098
1121.77	230
1122.81	229.931
1123.84	229.871
1124.87	229.914
1125.91	229.979
1126.94	230.117
1127.97	230.28
1129	230.54
1130.04	230.884
1131.07	231.351
1132.1	232.092
1133.13	233.179
1134.16	235.81
1135.19	237.867
1136.22	239.469
1137.25	240.892
1138.28	242.27
1139.31	243.873
1140.34	245.62
1141.37	247.53
1142.4	249.772
1143.43	251.201
1144.45	252.224
1145.48	252.78
1146.51	253.011
1147.54	252.977
1148.56	252.674
1149.59	253.389
1150.62	253.915
1151.64	254.402
1152.67	254.975
1153.69	256.685
1154.72	256.929
1155.74	256.453
1156.77	254.831
1157.79	253.12
1158.82	250.931
1159.84	248.341
1160.86	245.569
1161.89	242.298
1162.91	239.248
1163.93	236.446
1164.96	233.907
1165.98	231.586
1167	229.555
1168.02	227.758
1169.04	226.176
1170.06	224.869
1171.09	223.974
1172.11	224.417
1173.13	225.307
1174.15	225.854
1175.17	226.421
1176.19	226.886
1177.2	227.537
1178.22	228.557
1179.24	229.429
1180.26	229.937
1181.28	230.14
1182.3	230.181
1183.31	230.618
1184.33	230.112
1185.35	228.686
1186.37	226.66
1187.38	224.414
1188.4	221.481
1189.41	218.711
1190.43	216.31
1191.45	214.189
1192.46	212.442
1193.47	210.955
1194.49	209.83
1195.5	208.932
1196.52	208.376
1197.53	208.206
1198.55	208.265
1199.56	208.453
1200.57	208.744
1201.58	209.143
1202.6	208.983
1203.61	209.307
1204.62	209.687
1205.63	209.159
1206.64	208.555
1207.65	208.197
1208.66	207.989
1209.67	207.983
1210.68	208.117
1211.69	208.62
1212.7	209.237
1213.71	210.001
1214.72	210.827
1215.73	211.418
1216.74	212.085
1217.75	212.638
1218.76	212.9
1219.76	212.381
1220.77	212.029
1221.78	211.717
1222.79	211.777
1223.79	212.184
1224.8	212.091
1225.8	211.036
1226.81	210.605
1227.82	210.368
1228.82	210.536
1229.83	211.162
1230.83	210.905
1231.83	209.237
1232.84	208.455
1233.84	207.39
1234.85	205.658
1235.85	203.317
1236.85	200.425
1237.86	197.131
1238.86	193.553
1239.86	191.816
1240.86	190.964
1241.86	190.111
1242.86	189.907
1243.87	190.585
1244.87	191.127
1245.87	191.72
1246.87	192.551
1247.87	193.49
1248.87	194.426
1249.87	195.393
1250.87	196.33
1251.87	197.065
1252.86	197.507
1253.86	197.66
1254.86	197.319
1255.86	196.729
1256.86	195.882
1257.85	194.74
1258.85	193.304
1259.85	191.663
1260.84	189.612
1261.84	187.504
1262.84	186.426
1263.83	185.646
1264.83	185.076
1265.82	184.663
1266.82	184.431
1267.81	184.486
1268.81	184.699
1269.8	184.932
1270.79	185.226
1271.79	185.542
1272.78	185.772
1273.77	186.018
1274.77	186.098
1275.76	186.08
1276.75	185.921
1277.74	185.669
1278.73	185.241
1279.73	184.6
1280.72	184.045
1281.71	183.804
1282.7	184.273
1283.69	184.493
1284.68	184.037
1285.67	183.472
1286.66	182.892
1287.65	182.483
1288.64	182.121
1289.62	181.901
1290.61	181.731
1291.6	181.538
1292.59	181.405
1293.58	181.191
1294.56	180.977
1295.55	180.67
1296.54	180.26
1297.52	179.712
1298.51	179.224
1299.5	178.571
1300.48	177.965
1301.47	177.459
1302.45	177.154
1303.44	177.959
1304.42	177.737
1305.41	177.463
1306.39	177.203
1307.37	177.339
1308.36	177.63
1309.34	178.053
1310.32	178.511
1311.31	179.033
1312.29	179.659
1313.27	180.294
1314.25	180.917
1315.23	181.549
1316.21	182.099
1317.2	182.742
1318.18	183.273
1319.16	183.865
1320.14	184.261
1321.12	184.71
1322.1	185.123
1323.08	185.404
1324.06	185.61
1325.03	185.666
1326.01	185.492
1326.99	184.932
1327.97	183.805
1328.95	182.097
1329.92	180.256
1330.9	178.288
1331.88	176.356
1332.86	173.579
1333.83	171.112
1334.81	169.242
1335.78	167.793
1336.76	166.789
1337.74	166.302
1338.71	166.159
1339.69	166.546
1340.66	167.276
1341.63	168.258
1342.61	169.112
1343.58	169.89
1344.56	170.721
1345.53	171.272
1346.5	171.225
1347.47	170.683
1348.45	169.685
1349.42	167.091
1350.39	165.889
1351.36	164.559
1352.33	162.87
1353.31	160.901
1354.28	158.943
1355.25	156.394
1356.22	154.405
1357.19	152.897
1358.16	151.887
1359.13	151.302
1360.09	151.26
1361.06	151.419
1362.03	151.123
1363	150.985
1363.97	151.32
1364.94	152.1
1365.9	153.109
1366.87	154.267
1367.84	155.218
1368.81	156.43
1369.77	157.528
1370.74	158.404
1371.7	158.629
1372.67	158.383
1373.64	157.724
1374.6	156.727
1375.57	156.294
1376.53	155.918
1377.49	155.311
1378.46	154.789
1379.42	154.393
1380.39	154.2
1381.35	153.985
1382.31	153.667
1383.28	154.131
1384.24	155.116
1385.2	155.989
1386.16	156.577
1387.12	156.753
1388.09	156.601
1389.05	156.264
1390.01	155.469
1390.97	154.538
1391.93	153.49
1392.89	152.48
1393.85	151.408
1394.81	150.517
1395.77	149.556
1396.73	148.662
1397.68	147.798
1398.64	147.017
1399.6	146.37
1400.56	145.823
1401.52	145.319
1402.47	145.512
1403.43	146.736
1404.39	147.821
1405.35	148.973
1406.3	152.141
1407.26	144.962
1408.21	138.673
1409.17	140.004
1410.12	141.215
1411.08	140.359
1412.03	140.493
1412.99	140.866
1413.94	141.578
1414.9	142.247
1415.85	142.543
1416.8	141.99
1417.76	140.655
1418.71	139.775
1419.66	139.199
1420.62	138.887
1421.57	138.828
1422.52	139.017
1423.47	139.412
1424.42	140.093
1425.37	141.198
1426.32	142.49
1427.27	144.102
1428.22	145.577
1429.17	146.981
1430.12	148.128
1431.07	149.108
1432.02	149.95
1432.97	150.562
1433.92	150.891
1434.87	150.813
1435.82	150.23
1436.76	149.09
1437.71	148.128
1438.66	147.304
1439.61	146.587
1440.55	145.873
1441.5	145.1
1442.45	144.172
1443.39	143.182
1444.34	142.234
1445.28	141.479
1446.23	140.985
1447.17	140.735
1448.12	140.659
1449.06	140.476
1450.01	140.571
1450.95	140.872
1451.89	141.089
1452.84	140.85
1453.78	140.097
1454.72	139.144
1455.67	138.182
1456.61	137.378
1457.55	136.338
1458.49	135.234
1459.43	133.451
1460.37	131.87
1461.32	131.145
1462.26	131.021
1463.2	131.416
1464.14	132.234
1465.08	133.338
1466.02	134.74
1466.96	136.117
1467.89	136.804
1468.83	137.37
1469.77	137.813
1470.71	137.996
1471.65	137.945
1472.59	137.725
1473.52	137.396
1474.46	136.831
1475.4	136.152
1476.33	135.29
1477.27	134.268
1478.21	133.225
1479.14	132.547
1480.08	132.756
1481.01	133.131
1481.95	133.536
1482.88	133.844
1483.82	134.088
1484.75	134.246
1485.69	134.292
1486.62	134.288
1487.56	134.199
1488.49	134.054
1489.42	133.948
1490.35	133.556
1491.29	133.087
1492.22	132.599
1493.15	132.106
1494.08	131.586
1495.01	131.11
1495.94	130.657
1496.88	130.236
1497.81	130.005
1498.74	129.954
1499.67	129.931
1500.6	129.891
1501.53	129.944
1502.46	129.984
1503.39	130.093
1504.31	130.268
1505.24	130.461
1506.17	130.782
1507.1	131.201
1508.03	131.889
1508.95	132.836
1509.88	134.757
1510.81	136.463
1511.74	137.983
1512.66	139.937
1513.59	142.252
1514.51	145.036
1515.44	148.199
1516.36	151.73
1517.29	155.528
1518.21	159.626
1519.14	164.066
1520.06	167.626
1520.99	170.698
1521.91	172.96
1522.84	174.419
1523.76	174.779
1524.68	174.18
1525.6	172.479
1526.53	166.85
1527.45	163.632
1528.37	160.753
1529.29	157.52
1530.21	153.98
1531.14	150.129
1532.06	146.299
1532.98	142.88
1533.9	140.087
1534.82	138.36
1535.74	135.788
1536.66	133.882
1537.58	132.395
1538.5	131.051
1539.41	130.07
1540.33	129.347
1541.25	128.899
1542.17	128.722
1543.09	128.796
1544.01	128.957
1544.92	129.504
1545.84	129.992
1546.76	130.322
1547.67	130.208
1548.59	129.823
1549.51	129.299
1550.42	128.501
1551.34	127.512
1552.25	126.243
1553.17	124.824
1554.08	123.111
1555	121.187
1555.91	119.116
1556.82	117.049
1557.74	115.115
1558.65	113.35
1559.56	112.03
1560.48	110.693
1561.39	109.307
1562.3	107.646
1563.21	106.232
1564.13	104.994
1565.04	103.915
1565.95	102.944
1566.86	102.03
1567.77	101.234
1568.68	100.585
1569.59	100
1570.5	99.4269
1571.41	98.7912
1572.32	98.2966
1573.23	98.0014
1574.14	97.9068
1575.05	97.8944
1575.96	97.7906
1576.86	97.613
1577.77	97.4141
1578.68	96.914
1579.59	96.3952
1580.49	95.8478
1581.4	95.3498
1582.31	94.7193
1583.21	94.0278
1584.12	93.3221
1585.03	92.7328
1585.93	92.0234
1586.84	91.4076
1587.74	91.2582
1588.65	91.1973
1589.55	91.085
1590.46	90.8931
1591.36	91.0879
1592.26	91.4469
1593.17	91.7716
1594.07	91.8011
1594.97	91.6717
1595.88	91.4893
1596.78	91.1282
1597.68	90.6952
1598.58	90.2881
1599.48	89.817
1600.39	89.1789
1601.29	88.371
1602.19	87.4965
1603.09	86.815
1603.99	86.1525
1604.89	85.3664
1605.79	84.7491
1606.69	84.2545
1607.59	83.8501
1608.49	83.3195
1609.39	83.1446
1610.28	83.0534
1611.18	82.8677
1612.08	82.8928
1612.98	83.2872
1613.88	83.7072
1614.77	84.1981
1615.67	84.462
1616.57	84.5094
1617.46	84.3191
1618.36	83.7437
1619.26	82.9547
1620.15	82.2864
1621.05	81.6279
1621.94	80.9578
1622.84	80.3417
1623.73	79.6493
1624.63	78.8305
1625.52	78.0474
1626.41	77.4751
1627.31	76.8716
1628.2	76.1881
1629.09	75.4953
1629.99	74.8066
1630.88	74.1339
1631.77	73.5804
1632.65	73.4812
1633.58	73.8013
1634.51	74.1005
1635.43	74.6297
1636.36	74.5781
1637.29	74.931
1638.22	75.0072
1639.15	75.1636
1640.07	75.2908
1641	75.309
1641.93	75.2243
1642.85	74.9764
1643.78	75.2775
1644.7	75.4967
1645.63	74.7241
1646.55	73.6161
1647.48	72.3615
1648.41	70.6492
1649.33	69.6302
1650.25	69.2034
1651.18	69.2589
1652.1	69.7608
1653.03	70.0709
1653.95	70.4367
1654.87	70.8905
1655.8	71.9217
1656.72	72.741
1657.64	73.2842
1658.56	72.9468
1659.49	73.6355
1660.41	74.331
1661.33	75.0236
1662.25	75.5695
1663.17	76.115
1664.1	76.371
1665.02	76.2678
1665.94	76.1213
1666.86	75.6105
1667.78	75.235
1668.7	74.8908
1669.62	74.301
1670.54	73.6276
1671.46	73.3979
1672.38	72.7966
1673.29	72.296
1674.21	72.1181
1675.13	71.585
1676.05	71.3039
1676.97	71.3872
1677.89	71.7702
1678.8	71.8593
1679.72	72.0695
1680.64	72.3738
1681.55	72.9471
1682.47	73.502
1683.39	74.572
1684.3	74.4698
1685.22	74.2596
1686.14	74.1367
1687.05	73.9302
1687.97	73.93
1688.88	74.2369
1689.8	73.4796
1690.71	72.3705
1691.63	71.4423
1692.54	70.2228
1693.45	67.9235
1694.37	67.077
1695.28	66.5303
1696.19	66.2931
1697.11	66.3891
1698.02	67.0587
1698.93	67.684
1699.84	68.1431
1700.76	68.0859
1701.67	68.4882
1702.58	68.0897
1703.49	67.4436
1704.4	66.8614
1705.31	65.2826
1706.22	62.806
1707.14	62.0839
1708.05	61.6035
1708.96	61.2602
1709.87	61.064
1710.78	61.0686
1711.68	61.3597
1712.59	62.2604
1713.5	62.8955
1714.41	63.6882
1715.32	64.7645
1716.23	65.5058
1717.14	65.8514
1718.04	66.1143
1718.95	65.7702
1719.86	66.0353
1720.77	66.0155
1721.67	66.338
1722.58	66.2485
1723.49	66.1275
1724.39	65.6648
1725.3	65.2749
1726.21	64.5156
1727.11	63.9756
1728.02	63.1388
1728.92	62.86
1729.83	62.1535
1730.73	62.4551
1731.64	62.7206
1732.54	63.0357
1733.44	62.6486
1734.35	62.4418
1735.25	63.0433
1736.15	64.2241
1737.06	65.7554
1737.96	67.1462
1738.86	68.9656
1739.77	68.9623
1740.67	68.7103
1741.57	66.913
1742.47	65.0762
1743.37	62.4884
1744.27	59.6707
1745.18	57.5961
1746.08	57.3906
1746.98	59.0869
1747.88	59.694
1748.78	60.7517
1749.68	61.626
1750.58	60.0813
1751.48	60.4545
1752.38	60.8095
1753.28	61.0592
1754.17	61.5745
1755.07	62.2471
1755.97	63.0803
1756.87	63.7517
1757.77	64.1316
1758.66	64.6829
1759.56	64.7766
1760.46	64.259
1761.36	63.8014
1762.25	63.5596
1763.15	63.3524
1764.05	63.2552
1764.94	62.6907
1765.84	62.4128
1766.73	62.4138
1767.63	62.1806
1768.53	62.2018
1769.42	62.2283
1770.32	61.8714
1771.21	61.1225
1772.1	60.8817
1773	60.5531
1773.89	60.2601
1774.79	59.8001
1775.68	59.4769
1776.57	59.0624
1777.47	58.9327
1778.36	58.7484
1779.25	58.5159
1780.14	57.7021
1781.04	56.9005
1781.93	56.5597
1782.82	56.4147
1783.71	56.2581
1784.6	56.3354
1785.49	56.4925
1786.38	56.7174
1787.27	56.964
1788.17	56.9381
1789.06	57.075
1789.95	57.6347
1790.84	58.128
1791.72	58.6588
1792.61	58.9171
1793.5	59.1989
1794.39	58.8497
1795.28	58.9494
1796.17	58.563
1797.06	57.5375
1797.94	56.373
1798.83	55.8678
1799.72	55.8217
