Acq. time (s)=	15
Accumulations=	2
Range (cm-¹)=	600...1800
Windows=	2
Autofocus=	Off
AutoExposure=	Off
Spike filter=	Multiple accum.
Delay time (s)=	1
Binning=	1
Readout mode=	Signal
DeNoise=	Standard
ICS correction=	Off
Dark correction=	Off
Inst. Process=	Off
Instrument=	XploRA
Detector=	Syncerity
Objective=	x20LWD
Grating=	1200 gr/mm
Filter=	25%
Laser (nm)=	785 
Slit (µm)=	100 
Hole (µm)=	300 
Laser pol=	None
Raman pol=	None
Output=	Camera
StageXY=	Marzhauser
StageZ=	
X (µm)=	-3350.2
Y (µm)=	482.7
Project=	
Sample=	
Site=	
Title=	CLsoP1 
Remark=	
Date=	06.04.2022 10:35
Acquired=	06.04.2022 10:35:48
600.731	1822.5
601.9	1837.89
603.069	1852.71
604.238	1865.4
605.406	1880.52
606.575	1894.98
607.743	1907.54
608.91	1918.61
610.078	1929.09
611.245	1938.89
612.411	1948.34
613.579	1957.81
614.745	1964.69
615.91	1971.34
617.076	1976.54
618.241	1982.08
619.407	1987.26
620.571	1992.08
621.735	1996.12
622.9	2000.01
624.063	2004.18
625.227	2008.17
626.39	2010.2
627.553	2011.13
628.716	2012.72
629.879	2013.07
631.041	2012.76
632.203	2011.52
633.364	2009.08
634.526	2007.07
635.686	2004.55
636.847	2000.96
638.007	1997.04
639.167	1995.25
640.327	1994.32
641.486	1993.46
642.645	1992.99
643.805	1993.41
644.963	1994.45
646.122	1997.83
647.28	2000.9
648.438	2001.55
649.594	2002.23
650.752	2001.48
651.909	2003.57
653.065	2006.56
654.221	2008.94
655.377	2011.77
656.533	2011.9
657.688	2015.91
658.843	2020.02
659.998	2023.96
661.153	2026.76
662.307	2030.77
663.461	2032.48
664.615	2033.17
665.768	2035.23
666.921	2036.39
668.074	2036.19
669.226	2036.12
670.379	2036.69
671.53	2038.7
672.682	2042.1
673.833	2042.64
674.984	2043.21
676.135	2043.08
677.285	2042.6
678.436	2043.07
679.586	2043.43
680.735	2044.25
681.884	2044.49
683.033	2045.71
684.182	2049.71
685.33	2052.5
686.478	2054.65
687.626	2057.72
688.774	2060.29
689.921	2061.55
691.068	2061.78
692.214	2062.05
693.361	2061.07
694.507	2059.17
695.652	2055.91
696.798	2051.27
697.943	2047.42
699.088	2043.61
700.233	2038.03
701.377	2033.5
702.521	2028.6
703.665	2025.29
704.808	2021.94
705.951	2018.31
707.094	2015.45
708.236	2013.01
709.379	2010.44
710.522	2009.84
711.663	2006.16
712.804	2001.87
713.946	1995.75
715.086	1991.08
716.227	1987.9
717.367	1983.44
718.507	1978.52
719.647	1972.95
720.786	1967.84
721.925	1963.11
723.064	1959.97
724.202	1959.06
725.341	1960.77
726.479	1959.7
727.616	1963.19
728.753	1968.72
729.89	1978.16
731.027	1985.68
732.163	1993.66
733.3	2001.33
734.436	2009.64
735.572	2017.14
736.707	2026.61
737.842	2038.2
738.977	2045.14
740.111	2048.93
741.246	2050.49
742.379	2047.9
743.513	2042.79
744.646	2036.45
745.779	2030.15
746.911	2021.41
748.044	2011.81
749.176	2002.51
750.308	1992.66
751.44	1981.83
752.571	1971.67
753.702	1959.16
754.833	1946.53
755.963	1935.03
757.093	1922.69
758.223	1910.06
759.353	1898.95
760.481	1890.28
761.61	1883.18
762.74	1875.96
763.867	1868.79
764.996	1862.26
766.124	1854.21
767.251	1846.36
768.378	1839.09
769.505	1832.72
770.631	1825.98
771.758	1819.9
772.884	1812.39
774.01	1806.87
775.136	1802.41
776.261	1795.4
777.386	1787.89
778.51	1780.59
779.634	1772.21
780.758	1766.4
781.882	1765.12
783.006	1767.76
784.129	1768.39
785.252	1768.11
786.375	1767.85
787.497	1766.87
788.619	1765.93
789.741	1765.77
790.862	1762.53
791.983	1757.15
793.104	1752.95
794.225	1748.09
795.345	1742.75
796.465	1738.51
797.585	1734.58
798.704	1728.65
799.823	1722.21
800.943	1714.8
802.061	1709.82
803.179	1705.11
804.297	1702.77
805.415	1706.47
806.532	1694.94
807.649	1689.16
808.766	1685.69
809.883	1684.06
810.999	1683.35
812.115	1679.34
813.231	1674.47
814.346	1671.41
815.461	1669.62
816.577	1667.11
817.691	1665.98
818.805	1664.87
819.919	1663.22
821.033	1662.77
822.146	1660.13
823.259	1654.86
824.372	1650.26
825.485	1644.63
826.597	1639.62
827.709	1636.36
828.82	1633.57
829.932	1632.08
831.043	1631.9
832.154	1632.85
833.265	1633.22
834.375	1634.51
835.484	1633.62
836.594	1633.77
837.704	1634.11
838.813	1631.73
839.922	1630.98
841.03	1629.79
842.138	1627.5
843.246	1627.36
844.354	1627.56
845.461	1626.05
846.568	1620.08
847.675	1613.8
848.782	1607.82
849.888	1601.33
850.994	1594.37
852.1	1589.41
853.205	1584.36
854.31	1579.42
855.415	1575.14
856.52	1565.16
857.624	1564.03
858.727	1562.34
859.831	1559.71
860.935	1560.08
862.038	1554.02
863.141	1546.71
864.243	1552.04
865.345	1549.37
866.448	1545.24
867.549	1538.93
868.651	1532.44
869.751	1524.12
870.852	1517.61
871.953	1510.97
873.053	1505.93
874.153	1501.44
875.253	1497.29
876.352	1494.76
877.451	1492.97
878.55	1490.03
879.648	1490.35
880.747	1486.57
881.845	1483.04
882.943	1480.07
884.039	1476.26
885.137	1474.53
886.233	1473.54
887.33	1469.68
888.426	1467.37
889.522	1464.6
890.618	1465.14
891.713	1465.98
892.808	1468.17
893.903	1469.98
894.998	1471.82
896.092	1473.43
897.186	1475.48
898.28	1476.56
899.374	1478.57
900.467	1479.56
901.559	1480.27
902.652	1481.95
903.744	1483.32
904.836	1484.42
905.927	1487.39
907.019	1490.3
908.111	1494.17
909.201	1498.02
910.291	1502.08
911.382	1506.01
912.472	1506.7
913.562	1506.69
914.651	1505.85
915.741	1502.45
916.829	1495.88
917.918	1486.75
919.006	1476.02
920.094	1464.56
921.181	1452.29
922.269	1440
923.356	1426.87
924.443	1416.63
925.53	1408.17
926.616	1402.32
927.702	1397.61
928.788	1393.35
929.873	1390.5
930.958	1388.2
932.044	1384.49
933.128	1379.23
934.212	1373.53
935.296	1370.47
936.38	1366.05
937.463	1362.71
938.547	1361.32
939.63	1359.46
940.712	1357.14
941.795	1353.87
942.876	1351.19
943.958	1346.66
945.039	1340.25
946.121	1336.5
947.202	1333.25
948.282	1331.08
949.363	1327.38
950.443	1320.89
951.522	1315.96
952.602	1308.74
953.681	1303.45
954.76	1298.41
955.839	1294.55
956.917	1291.84
957.995	1290.32
959.073	1291.5
960.151	1293.86
961.228	1296.27
962.305	1298.64
963.381	1299.64
964.458	1298.85
965.534	1296.64
966.61	1295.69
967.685	1296.15
968.76	1296.45
969.836	1296.76
970.91	1300.2
971.984	1301.67
973.059	1303.87
974.133	1304.46
975.206	1306.91
976.279	1312.13
977.352	1318.11
978.425	1324.51
979.497	1331.36
980.57	1339.62
981.642	1346.21
982.714	1351.97
983.785	1353.7
984.856	1353.99
985.927	1353.22
986.997	1350.48
988.067	1346.91
989.137	1344.97
990.206	1340.41
991.276	1335.65
992.345	1331.86
993.413	1328.39
994.482	1325.07
995.55	1321.55
996.619	1320.77
997.686	1320.31
998.754	1319.27
999.821	1316.37
1000.89	1313.64
1001.95	1311.44
1003.02	1307.31
1004.09	1302.12
1005.15	1296.46
1006.22	1290.34
1007.28	1282.58
1008.35	1272.05
1009.41	1261.71
1010.48	1250.23
1011.54	1239.19
1012.6	1229.84
1013.67	1220.77
1014.73	1212.92
1015.79	1205.51
1016.86	1197.72
1017.92	1190.61
1018.98	1184.61
1020.04	1178.08
1021.1	1174.25
1022.16	1168.8
1023.23	1163.83
1024.29	1159.66
1025.35	1159.07
1026.41	1157.8
1027.47	1158.71
1028.53	1153.38
1029.58	1148.52
1030.64	1145.47
1031.7	1143.88
1032.76	1144.6
1033.82	1145.96
1034.88	1145.62
1035.93	1144.77
1036.99	1144.6
1038.05	1144.66
1039.11	1146.02
1040.16	1148.51
1041.22	1150.47
1042.27	1151.97
1043.33	1152.64
1044.38	1153.91
1045.44	1153.74
1046.49	1154.47
1047.55	1153.14
1048.6	1152.02
1049.66	1148.98
1050.71	1145.25
1051.76	1139.33
1052.82	1133.52
1053.87	1127.54
1054.92	1121.56
1055.97	1116.94
1057.03	1113.21
1058.08	1102.91
1059.13	1100.27
1060.18	1099.2
1061.23	1099.06
1062.28	1101.28
1063.33	1104.94
1064.38	1112.92
1065.43	1112.87
1066.48	1111.75
1067.53	1107.33
1068.58	1102.92
1069.63	1099.1
1070.68	1095.38
1071.72	1091.14
1072.77	1086.26
1073.82	1082.62
1074.87	1079.27
1075.91	1076.48
1076.96	1073.98
1078.01	1072.59
1079.05	1068.62
1080.1	1063.02
1081.14	1058.78
1082.19	1055.42
1083.23	1052.55
1084.28	1051
1085.32	1049.7
1086.37	1048.83
1087.41	1048.72
1088.46	1048.6
1089.5	1048.7
1090.54	1049.57
1091.58	1046.59
1092.63	1043.22
1093.67	1040.71
1094.71	1039.17
1095.75	1038.04
1096.79	1037.34
1097.83	1037.36
1098.88	1038.17
1099.92	1039.24
1100.96	1041.2
1102	1038.9
1103.04	1035.05
1104.08	1034.39
1105.11	1033.11
1106.15	1034.87
1107.19	1037.84
1108.23	1046.56
1109.27	1052.6
1110.31	1054.91
1111.34	1055.19
1112.38	1053.98
1113.42	1049.14
1114.45	1035.23
1115.49	1031.32
1116.53	1031.65
1117.56	1027.54
1118.6	1022.7
1119.63	1017.65
1120.67	1012.24
1121.7	1006.75
1122.74	1001.98
1123.77	997.646
1124.81	995.9
1125.84	992.805
1126.87	992.491
1127.91	993.429
1128.94	993.968
1129.97	997.216
1131	999.681
1132.04	1005.88
1133.07	1012.4
1134.1	1018.19
1135.13	1033.59
1136.16	1050.31
1137.19	1067.96
1138.22	1086.45
1139.25	1098.62
1140.28	1110.04
1141.31	1117.8
1142.34	1124.17
1143.37	1128.24
1144.4	1104.92
1145.42	1096.57
1146.45	1086.96
1147.48	1123.92
1148.51	1139.54
1149.53	1152.99
1150.56	1171.82
1151.59	1195.95
1152.62	1204.19
1153.64	1215.73
1154.67	1217.92
1155.69	1213.06
1156.72	1197.14
1157.74	1177.53
1158.77	1151.04
1159.79	1117.14
1160.82	1090.06
1161.84	1063.82
1162.86	1038.66
1163.89	1014.56
1164.91	992.619
1165.93	990.937
1166.96	981.207
1167.98	973.221
1169	966.935
1170.02	966.223
1171.04	969.28
1172.06	972.294
1173.09	978.747
1174.11	986.078
1175.13	996.388
1176.15	1005.8
1177.17	1016.84
1178.18	1025.99
1179.2	1036.77
1180.22	1049.3
1181.24	1056.46
1182.26	1059.35
1183.28	1060.76
1184.3	1060.03
1185.31	1055.18
1186.33	1046.59
1187.35	1033.83
1188.37	1018.3
1189.38	1004.91
1190.4	990.411
1191.41	983.528
1192.43	973.222
1193.44	963.608
1194.46	954.035
1195.48	946.006
1196.49	938.368
1197.5	931.751
1198.52	929.392
1199.53	922
1200.54	917.166
1201.56	913.342
1202.57	910.919
1203.58	910.245
1204.6	912.35
1205.61	914.023
1206.62	916.519
1207.63	919.576
1208.64	922.927
1209.65	926.473
1210.66	929.818
1211.67	933.148
1212.68	936.034
1213.69	938.699
1214.7	940.684
1215.71	941.273
1216.72	937.117
1217.73	935.895
1218.74	934.172
1219.75	933.865
1220.76	933.343
1221.76	937.901
1222.77	934.753
1223.78	929.953
1224.79	923.212
1225.79	915.546
1226.8	906.657
1227.8	894.435
1228.81	885.254
1229.82	880.808
1230.82	874.514
1231.83	867.451
1232.83	858.822
1233.84	852.442
1234.84	846.284
1235.84	840.864
1236.85	843.609
1237.85	839.978
1238.85	837.092
1239.86	833.939
1240.86	830.096
1241.86	827.311
1242.86	823.567
1243.86	820.356
1244.87	816.32
1245.87	814.291
1246.87	810.884
1247.87	808.939
1248.87	806.482
1249.87	808.038
1250.87	807.08
1251.87	804.775
1252.87	803.608
1253.87	803.696
1254.86	800.213
1255.86	795.711
1256.86	790.646
1257.86	790.6
1258.86	793.935
1259.85	807.992
1260.85	811.558
1261.85	804.966
1262.84	802.383
1263.84	799.298
1264.84	795.751
1265.83	791.443
1266.83	787.753
1267.82	783.32
1268.82	779.187
1269.81	775.835
1270.81	771.996
1271.8	769.615
1272.8	767.734
1273.79	767.097
1274.78	767.444
1275.77	769.147
1276.77	770.421
1277.76	773.054
1278.75	776.84
1279.74	780.321
1280.74	784.081
1281.73	787.467
1282.72	790.548
1283.71	792.115
1284.7	792.927
1285.69	792.084
1286.68	793.935
1287.67	790.603
1288.66	785.299
1289.65	778.984
1290.64	772.546
1291.63	765.289
1292.61	759.319
1293.6	751.737
1294.59	745.992
1295.58	739.753
1296.56	736.062
1297.55	734.305
1298.54	735.049
1299.52	737.839
1300.51	738.254
1301.5	738.47
1302.48	740.564
1303.47	748.638
1304.45	747.274
1305.44	744.285
1306.42	740.216
1307.41	734.963
1308.39	726.795
1309.37	721.89
1310.36	718.666
1311.34	716.931
1312.32	717.622
1313.31	718.91
1314.29	722.765
1315.27	726.871
1316.25	733.37
1317.23	738.938
1318.22	748.194
1319.2	750.594
1320.18	766.06
1321.16	781.329
1322.14	796.217
1323.12	810.864
1324.1	821.928
1325.08	831.508
1326.06	837.823
1327.04	823.868
1328.01	812.534
1328.99	801.214
1329.97	783.465
1330.95	762.556
1331.93	744.334
1332.9	728.621
1333.88	716.247
1334.86	703.702
1335.83	707.171
1336.81	703.079
1337.79	697.713
1338.76	689.814
1339.74	686.167
1340.71	683.398
1341.69	681.245
1342.66	680.075
1343.64	678.85
1344.61	678.079
1345.58	677.869
1346.56	677.406
1347.53	678.673
1348.5	679.855
1349.48	681.585
1350.45	681.781
1351.42	681.426
1352.39	680.102
1353.36	678.464
1354.34	675.653
1355.31	673.002
1356.28	667.772
1357.25	661.91
1358.22	658.242
1359.19	655.01
1360.16	651.721
1361.13	648.338
1362.1	646.769
1363.07	645.065
1364.03	642.78
1365	640.79
1365.97	639.951
1366.94	639.099
1367.91	639.604
1368.87	640.325
1369.84	641.185
1370.81	642.633
1371.77	644.5
1372.74	646.153
1373.71	646.605
1374.67	645.509
1375.64	646.605
1376.6	647.324
1377.57	648.667
1378.53	650.966
1379.5	651.3
1380.46	650.839
1381.42	650.332
1382.39	648.47
1383.35	643.866
1384.31	640.33
1385.28	637.477
1386.24	636.306
1387.2	635.346
1388.16	637.141
1389.13	638.68
1390.09	637.389
1391.05	634.032
1392.01	629.535
1392.97	625.203
1393.93	622.481
1394.89	620.776
1395.85	618.87
1396.81	616.277
1397.77	614.209
1398.73	612.218
1399.69	609.766
1400.64	607.48
1401.6	604.095
1402.56	600.58
1403.52	595.694
1404.48	592.542
1405.43	589.77
1406.39	587.803
1407.35	585.388
1408.3	583.325
1409.26	580.678
1410.22	578.643
1411.17	576.711
1412.13	576.033
1413.08	575.47
1414.04	575.168
1414.99	575.553
1415.94	576.353
1416.9	577.309
1417.85	577.707
1418.81	577.996
1419.76	577.801
1420.71	577.985
1421.66	578.487
1422.62	579.26
1423.57	580.638
1424.52	582.292
1425.47	583.959
1426.42	585.634
1427.37	588.388
1428.33	591.941
1429.28	596.408
1430.23	600.641
1431.18	605.953
1432.13	610.231
1433.07	613.955
1434.02	616.973
1434.97	618.443
1435.92	619.767
1436.87	620.074
1437.82	620.377
1438.77	619.814
1439.71	618.78
1440.66	617.96
1441.61	615.992
1442.55	611.528
1443.5	605.726
1444.45	599.084
1445.39	591.779
1446.34	585.455
1447.28	578.572
1448.23	572.463
1449.18	567.258
1450.12	562.312
1451.06	559.282
1452.01	556.614
1452.95	554.153
1453.9	551.354
1454.84	550.001
1455.78	549.736
1456.72	550.108
1457.67	549.442
1458.61	547.849
1459.55	546.643
1460.49	545.58
1461.43	544.027
1462.38	542.343
1463.32	540.688
1464.26	537.504
1465.2	535.005
1466.14	531.904
1467.08	530.398
1468.02	528.439
1468.96	526.902
1469.9	525.936
1470.83	525.739
1471.77	525.895
1472.71	527.42
1473.65	528.891
1474.59	529.951
1475.53	530.833
1476.46	531.798
1477.4	532.91
1478.34	533.964
1479.27	535.561
1480.21	536.715
1481.14	538.302
1482.08	538.644
1483.02	538.452
1483.95	539.227
1484.89	539.32
1485.82	539.518
1486.75	538.172
1487.69	537.805
1488.62	537.721
1489.56	537.65
1490.49	537.926
1491.42	537.803
1492.35	537.856
1493.29	536.66
1494.22	536.047
1495.15	534.385
1496.08	530.846
1497.01	527.982
1497.95	526.161
1498.88	525.299
1499.81	524.105
1500.74	523.488
1501.67	524.411
1502.6	524.92
1503.53	526.506
1504.46	529.879
1505.39	534.203
1506.31	539.998
1507.24	546.769
1508.17	554.28
1509.1	563.576
1510.03	574.688
1510.95	586.014
1511.88	598.95
1512.81	611.754
1513.74	623.823
1514.66	640.254
1515.59	657.287
1516.51	675.332
1517.44	693.103
1518.37	709.936
1519.29	726.277
1520.22	741.32
1521.14	754.903
1522.06	765.729
1522.99	774.827
1523.91	780.595
1524.84	782.605
1525.76	780.05
1526.68	774.344
1527.61	766.194
1528.53	754.425
1529.45	742.777
1530.37	729.677
1531.29	713.961
1532.21	697.877
1533.14	680.186
1534.06	662.144
1534.98	645.287
1535.9	628.207
1536.82	611.799
1537.74	596.671
1538.66	583.361
1539.58	572.382
1540.5	562.518
1541.42	554.735
1542.33	548.515
1543.25	544.065
1544.17	541.817
1545.09	541.04
1546.01	540.536
1546.92	540.776
1547.84	540.452
1548.76	540.02
1549.67	538.611
1550.59	536.924
1551.51	533.172
1552.42	528.607
1553.34	522.881
1554.25	517.111
1555.17	510.014
1556.08	503.51
1557	497.371
1557.91	490.75
1558.82	484.711
1559.74	479.64
1560.65	474.161
1561.56	469.619
1562.48	465.663
1563.39	462.175
1564.3	458.393
1565.21	455.4
1566.13	452.601
1567.04	450.315
1567.95	448.629
1568.86	446.933
1569.77	445.617
1570.68	444.127
1571.59	442.85
1572.5	441.607
1573.41	440.47
1574.32	439.193
1575.23	437.552
1576.14	436.341
1577.05	435.259
1577.95	434.504
1578.86	433.422
1579.77	433.175
1580.68	433.224
1581.59	432.712
1582.49	432.57
1583.4	432.08
1584.31	431.954
1585.21	431.953
1586.12	432.782
1587.02	433.014
1587.93	433.486
1588.84	433.67
1589.74	434.376
1590.65	435.489
1591.55	437.026
1592.45	438.039
1593.36	439.53
1594.26	441.966
1595.17	444.503
1596.07	447.073
1596.97	449.55
1597.87	452.348
1598.78	454.895
1599.68	457.052
1600.58	459.318
1601.48	460.762
1602.38	461.248
1603.29	461.128
1604.19	460.83
1605.09	459.703
1605.99	458.331
1606.89	456.005
1607.79	453.176
1608.69	450.33
1609.59	447.042
1610.49	443.957
1611.38	441.689
1612.28	439.099
1613.18	437.295
1614.08	435.777
1614.98	434.47
1615.87	432.086
1616.77	429.329
1617.67	426.762
1618.57	424.467
1619.46	422.693
1620.36	421.548
1621.25	420.99
1622.15	420.412
1623.05	418.607
1623.94	416.616
1624.84	415.622
1625.73	414.463
1626.62	413.919
1627.52	413.967
1628.41	414.429
1629.31	414.939
1630.2	415.613
1631.09	416.876
1631.99	418.837
1632.87	418.276
1633.8	413.941
1634.73	409.48
1635.65	405.279
1636.58	402.991
1637.51	401.472
1638.44	401.592
1639.37	402.56
1640.29	402.247
1641.22	401.893
1642.15	401.016
1643.08	399.663
1644	396.45
1644.93	395.238
1645.85	401.679
1646.78	401.75
1647.71	401.418
1648.63	400.61
1649.56	399.595
1650.48	398.109
1651.41	396.386
1652.33	394.433
1653.26	391.459
1654.18	388.899
1655.1	389.644
1656.03	391.57
1656.95	394.456
1657.87	397.137
1658.8	395.99
1659.72	395.599
1660.64	395.513
1661.56	395.342
1662.49	395.604
1663.41	396.536
1664.33	396.739
1665.25	396.559
1666.17	394.852
1667.09	392.377
1668.02	391.041
1668.94	390.734
1669.86	388.696
1670.78	386.648
1671.7	384.887
1672.62	383.357
1673.53	382.489
1674.45	382.219
1675.37	382.344
1676.29	382.718
1677.21	383.477
1678.13	384.273
1679.05	385.049
1679.96	385.109
1680.88	383.398
1681.8	382.23
1682.72	380.382
1683.63	378.784
1684.55	377.372
1685.47	375.701
1686.38	374.493
1687.3	372.839
1688.21	371.915
1689.13	372.18
1690.05	372.362
1690.96	372.135
1691.87	371.763
1692.79	371.359
1693.7	370.618
1694.62	369.005
1695.53	368.071
1696.45	366.875
1697.36	365.111
1698.27	364.89
1699.19	365.107
1700.1	364.138
1701.01	360.991
1701.92	358.009
1702.84	355.185
1703.75	352.891
1704.66	350.756
1705.57	349.017
1706.48	347.469
1707.39	346.589
1708.3	346.116
1709.21	345.969
1710.12	345.959
1711.03	346.036
1711.95	346.134
1712.85	346.001
1713.76	345.126
1714.67	344.826
1715.58	344.776
1716.49	344.105
1717.4	343.409
1718.31	342.818
1719.22	342.002
1720.12	341.24
1721.03	340.523
1721.94	339.824
1722.85	339.615
1723.75	339.54
1724.66	339.693
1725.57	340.116
1726.47	340.393
1727.38	339.853
1728.28	338.727
1729.19	338.858
1730.1	337.711
1731	337.222
1731.91	335.883
1732.81	333.973
1733.71	332.819
1734.62	331.734
1735.52	330.642
1736.43	331.368
1737.33	332.729
1738.23	334.28
1739.14	332.931
1740.04	331.311
1740.94	329.432
1741.85	327.393
1742.75	325.179
1743.65	322.708
1744.55	319.996
1745.45	317.259
1746.35	316.18
1747.26	317.534
1748.16	323.931
1749.06	333.122
1749.96	333.412
1750.86	333.676
1751.76	329.114
1752.66	322.813
1753.56	325.294
1754.46	324.817
1755.36	322.715
1756.25	318.821
1757.15	316.836
1758.05	315.525
1758.95	314.808
1759.85	314.568
1760.75	314.687
1761.64	315.022
1762.54	315.797
1763.44	316.607
1764.33	317.687
1765.23	318.759
1766.13	319.719
1767.02	320.413
1767.92	320.319
1768.82	319.874
1769.71	319.635
1770.61	319.26
1771.5	317.71
1772.4	315.979
1773.29	314.18
1774.19	312.213
1775.08	310.675
1775.97	309.361
1776.87	308.707
1777.76	308.188
1778.65	307.878
1779.55	307.656
1780.44	307.478
1781.33	307.403
1782.23	307.12
1783.12	307.232
1784.01	307.232
1784.9	306.965
1785.79	306.915
1786.68	306.733
1787.58	306.207
1788.47	305.438
1789.36	303.99
1790.25	302.339
1791.14	300.431
1792.03	298.451
1792.92	296.405
1793.81	294.353
1794.7	292.198
1795.58	290.61
1796.47	289.049
1797.36	287.77
1798.25	286.811
1799.14	286.429
