Acq. time (s)=	15
Accumulations=	2
Range (cm-¹)=	600...1800
Windows=	2
Autofocus=	Off
AutoExposure=	Off
Spike filter=	Multiple accum.
Delay time (s)=	1
Binning=	1
Readout mode=	Signal
DeNoise=	Standard
ICS correction=	Off
Dark correction=	Off
Inst. Process=	Off
Instrument=	XploRA
Detector=	Syncerity
Objective=	x20LWD
Grating=	1200 gr/mm
Filter=	25%
Laser (nm)=	785 
Slit (µm)=	100 
Hole (µm)=	300 
Laser pol=	None
Raman pol=	None
Output=	Camera
StageXY=	Marzhauser
StageZ=	
X (µm)=	-16342.3
Y (µm)=	4703.9
Project=	
Sample=	
Site=	
Title=	T1
Remark=	
Date=	27.10.2021 15:32
Operator=	
Power=	
Acquired=	27.10.2021 15:32:37
600.089	2623.07
601.257	2649.9
602.426	2679.94
603.594	2708.19
604.763	2724.42
605.93	2733.46
607.098	2739.59
608.264	2746.33
609.431	2748.71
610.598	2750.2
611.764	2753.1
612.93	2756.05
614.096	2759.55
615.261	2763.46
616.426	2766.51
617.591	2769.94
618.756	2773.02
619.92	2777.12
621.084	2781.77
622.247	2789.02
623.411	2795.16
624.574	2802.62
625.736	2808.92
626.899	2815.22
628.061	2822.03
629.223	2825.23
630.385	2827.9
631.546	2828.82
632.706	2826.28
633.867	2823.37
635.028	2817.09
636.188	2810.39
637.348	2805
638.507	2797.15
639.667	2787.96
640.826	2778.8
641.984	2767.21
643.142	2755.69
644.3	2743.19
645.458	2731.88
646.616	2723.3
647.773	2714.78
648.93	2708.43
650.086	2701.28
651.243	2695.98
652.399	2692.16
653.555	2689.58
654.71	2687.09
655.865	2684.42
657.02	2680.98
658.174	2679.61
659.329	2680.65
660.483	2682.7
661.637	2684.88
662.79	2687.47
663.944	2686.9
665.096	2685.51
666.249	2685.2
667.401	2684.13
668.552	2682.89
669.705	2682.36
670.856	2678.41
672.007	2675.59
673.158	2675.38
674.308	2674.76
675.458	2675.45
676.609	2676.19
677.757	2677.32
678.907	2678.98
680.057	2686.24
681.205	2690.17
682.353	2690.8
683.502	2690.69
684.649	2688.89
685.797	2685.31
686.944	2679.9
688.091	2675.97
689.238	2671.19
690.385	2666.83
691.53	2662.46
692.676	2657.3
693.822	2653.75
694.967	2650.8
696.112	2650.49
697.257	2648.37
698.401	2643.34
699.545	2638.24
700.689	2630.21
701.832	2622.18
702.975	2617.41
704.119	2612.04
705.261	2605.93
706.403	2602.06
707.546	2597
708.688	2590.67
709.829	2584.27
710.97	2579.66
712.11	2574.51
713.252	2569.97
714.392	2566.75
715.532	2564.42
716.672	2562.68
717.811	2559.18
718.95	2557.47
720.089	2553.74
721.227	2550.22
722.366	2546.63
723.504	2544.02
724.642	2541.86
725.779	2538.67
726.916	2538.01
728.053	2535.23
729.19	2529.25
730.326	2532.44
731.462	2539.62
732.597	2548.54
733.733	2558.47
734.868	2568.38
736.003	2581.29
737.137	2599.76
738.272	2614.63
739.405	2622.57
740.539	2624.59
741.672	2625.38
742.805	2620.38
743.938	2612.05
745.071	2599.44
746.203	2585.42
747.335	2567.45
748.467	2555.74
749.598	2544.59
750.728	2534.93
751.86	2524.35
752.99	2515.32
754.12	2507.18
755.25	2504.41
756.38	2495.22
757.509	2486.67
758.638	2477.23
759.767	2466.11
760.896	2455.76
762.023	2445.21
763.152	2433.57
764.279	2423.43
765.406	2410.59
766.533	2396
767.66	2381.94
768.786	2367.68
769.912	2357.29
771.038	2345.74
772.164	2341.51
773.289	2339.11
774.414	2337.52
775.539	2336.37
776.664	2337.36
777.787	2333.57
778.911	2327.47
780.035	2321.72
781.158	2316.05
782.281	2307.99
783.404	2299.87
784.526	2292.75
785.648	2287.44
786.77	2280.5
787.891	2272.32
789.013	2264.57
790.134	2257.07
791.254	2248.99
792.374	2241.72
793.494	2236.18
794.614	2230.84
795.734	2228.9
796.853	2225.28
797.973	2222.29
799.091	2216.62
800.21	2211.92
801.327	2206
802.445	2202.88
803.563	2200.12
804.68	2194.94
805.797	2190.83
806.914	2187.83
808.03	2186.13
809.146	2184.32
810.262	2181.65
811.377	2179.34
812.492	2179
813.608	2176.91
814.722	2171.89
815.836	2166.79
816.95	2163.15
818.064	2158.07
819.177	2152.37
820.291	2145.12
821.404	2138.18
822.517	2132.88
823.628	2130.88
824.741	2128.67
825.852	2125.44
826.964	2122.8
828.075	2124
829.186	2126.67
830.297	2129.41
831.407	2131.74
832.517	2133.9
833.627	2135.93
834.736	2138.55
835.846	2139.64
836.954	2138.8
838.063	2139.78
839.171	2138.79
840.279	2138.05
841.387	2136.2
842.494	2132.55
843.602	2129.41
844.709	2125.91
845.815	2123.25
846.922	2117.82
848.028	2110.68
849.134	2103.19
850.239	2095.65
851.344	2086.54
852.449	2077.24
853.554	2068.52
854.658	2060.58
855.762	2051.9
856.865	2043.94
857.969	2035.89
859.073	2028.34
860.175	2022.3
861.278	2014.11
862.38	2008.52
863.482	2002.29
864.584	1997.64
865.686	1993.61
866.787	1991.4
867.887	1989.9
868.988	1986.79
870.088	1984.14
871.189	1980.88
872.288	1978.66
873.387	1976.01
874.487	1975.61
875.586	1974.69
876.684	1973.07
877.783	1971.02
878.881	1969.24
879.979	1967.6
881.076	1963.49
882.173	1960.45
883.27	1955.73
884.366	1950.48
885.463	1944.68
886.559	1939.45
887.655	1935.1
888.75	1929.53
889.845	1924.22
890.94	1918.47
892.035	1913.3
893.13	1909.95
894.223	1906.41
895.318	1905.74
896.411	1907.62
897.504	1909.05
898.597	1909.3
899.69	1910.62
900.782	1913.68
901.874	1916.56
902.966	1920.48
904.057	1923.94
905.148	1925.36
906.239	1928.08
907.33	1929.34
908.42	1932.44
909.51	1937.22
910.601	1947.91
911.69	1952.01
912.779	1954.66
913.868	1952.94
914.956	1955.73
916.045	1959.71
917.133	1961.96
918.221	1957.84
919.308	1948.88
920.396	1937.94
921.483	1922.25
922.569	1903.85
923.656	1886.24
924.742	1865.03
925.827	1843.53
926.913	1826.95
927.999	1820.96
929.083	1813.08
930.168	1809.9
931.253	1804.41
932.337	1796.26
933.42	1790.68
934.504	1785.02
935.587	1779.66
936.67	1774.73
937.753	1771.34
938.835	1767.27
939.917	1765.07
940.999	1763.53
942.081	1763.83
943.162	1763.01
944.243	1763.09
945.324	1762.72
946.404	1761.33
947.484	1758.82
948.565	1756.36
949.644	1755.42
950.723	1753.26
951.802	1751.15
952.881	1748.29
953.96	1745.05
955.038	1740.4
956.116	1737.41
957.193	1733.57
958.27	1731.18
959.347	1731.37
960.425	1731.63
961.501	1732.04
962.577	1731.35
963.653	1729.68
964.729	1724.61
965.804	1719.96
966.879	1714.77
967.954	1708.57
969.029	1706.1
970.102	1703.87
971.177	1702.06
972.25	1697.39
973.324	1696.06
974.397	1697.4
975.469	1700.03
976.542	1705.09
977.614	1715.43
978.686	1723.17
979.758	1730.74
980.83	1744.6
981.9	1756.1
982.972	1764.73
984.042	1768.84
985.112	1771
986.182	1770.12
987.252	1767.17
988.321	1765.04
989.39	1756.99
990.46	1749.95
991.528	1744.22
992.596	1740.46
993.664	1735.84
994.732	1731.97
995.8	1728.24
996.867	1726.99
997.934	1726.26
999	1730.08
1000.07	1727.05
1001.13	1722.68
1002.2	1718.35
1003.26	1723.52
1004.33	1711.67
1005.39	1696.45
1006.46	1679.88
1007.52	1660.19
1008.59	1644.6
1009.65	1630.04
1010.71	1617.51
1011.78	1607.22
1012.84	1599.13
1013.9	1597.52
1014.97	1599.63
1016.03	1597.97
1017.09	1594.85
1018.15	1592.48
1019.21	1588.22
1020.27	1584.5
1021.33	1580.19
1022.39	1576.04
1023.46	1571.04
1024.51	1566.01
1025.57	1555.49
1026.63	1548.57
1027.69	1539.67
1028.75	1530.69
1029.81	1522.94
1030.87	1515.22
1031.93	1507.65
1032.98	1502.16
1034.04	1500.79
1035.1	1500.47
1036.15	1499.15
1037.21	1496.89
1038.27	1496.99
1039.32	1498.98
1040.38	1502.65
1041.44	1505.63
1042.49	1510.65
1043.55	1514.07
1044.6	1519.61
1045.65	1522.83
1046.71	1521.44
1047.76	1521.15
1048.82	1517.79
1049.87	1515.49
1050.92	1510.13
1051.97	1504.29
1053.03	1498.76
1054.08	1493.76
1055.13	1490.02
1056.18	1485.55
1057.23	1480.22
1058.28	1476.22
1059.33	1473.59
1060.38	1472.31
1061.44	1471.73
1062.48	1472.97
1063.53	1471.97
1064.58	1469.99
1065.63	1468.38
1066.68	1466.54
1067.73	1462.56
1068.78	1459.81
1069.83	1454.82
1070.87	1450.62
1071.92	1445.04
1072.97	1439.39
1074.01	1435.07
1075.06	1429.78
1076.11	1424.74
1077.15	1420.65
1078.2	1416.34
1079.24	1413.33
1080.29	1411.26
1081.33	1409.29
1082.38	1408.76
1083.42	1407.62
1084.47	1404.78
1085.51	1400.8
1086.55	1397.55
1087.6	1396.09
1088.64	1395.21
1089.68	1395.05
1090.72	1393.19
1091.77	1393.23
1092.81	1392.69
1093.85	1392.37
1094.89	1392.45
1095.93	1392.32
1096.97	1391.38
1098.01	1391.66
1099.05	1390.35
1100.09	1389.54
1101.13	1387.59
1102.17	1386.74
1103.21	1385.04
1104.25	1383.36
1105.29	1383.03
1106.33	1383.55
1107.36	1384.79
1108.4	1387.95
1109.44	1390.09
1110.48	1392.45
1111.51	1393.53
1112.55	1393.04
1113.58	1390.32
1114.62	1387.7
1115.66	1384.79
1116.69	1380.71
1117.73	1376.71
1118.76	1373.37
1119.8	1367.58
1120.83	1360.26
1121.86	1354.75
1122.9	1349.91
1123.93	1345.31
1124.96	1340.26
1126	1337.5
1127.03	1335.7
1128.06	1336.1
1129.1	1338.13
1130.13	1342.84
1131.16	1346.29
1132.19	1351.96
1133.22	1358.72
1134.25	1365.97
1135.28	1373.93
1136.31	1384.3
1137.34	1396.04
1138.37	1407.86
1139.4	1414.73
1140.43	1419.53
1141.46	1424.44
1142.49	1426.92
1143.51	1429.95
1144.54	1430.17
1145.57	1433.61
1146.6	1437.1
1147.62	1443.54
1148.65	1448.76
1149.68	1451.71
1150.7	1464.47
1151.73	1478.45
1152.76	1494.28
1153.78	1511.42
1154.81	1522.54
1155.83	1531.15
1156.85	1532.1
1157.88	1528.04
1158.9	1519.49
1159.93	1484.01
1160.95	1444.04
1161.97	1406.06
1163	1365.1
1164.02	1331.4
1165.04	1303.9
1166.06	1312.45
1167.09	1301.46
1168.11	1298.35
1169.13	1301.55
1170.15	1305.81
1171.17	1310.74
1172.19	1314.27
1173.21	1319.23
1174.23	1323.76
1175.25	1327.47
1176.27	1335.13
1177.29	1342.79
1178.31	1351.04
1179.33	1359.92
1180.34	1369.83
1181.36	1379.63
1182.38	1384.4
1183.4	1386.74
1184.41	1386.6
1185.43	1382.94
1186.45	1381.26
1187.46	1374.1
1188.48	1358.8
1189.5	1345.31
1190.51	1331.41
1191.53	1317.21
1192.54	1302.74
1193.56	1288.56
1194.57	1275.33
1195.59	1261.27
1196.6	1248.14
1197.61	1237.59
1198.63	1228.91
1199.64	1221.89
1200.65	1216.05
1201.66	1211.6
1202.68	1209.61
1203.69	1210.21
1204.7	1211.8
1205.71	1216.42
1206.72	1219.93
1207.73	1224.08
1208.74	1228.42
1209.75	1232.07
1210.76	1235.42
1211.77	1237.93
1212.78	1239.63
1213.79	1240.75
1214.8	1241.34
1215.81	1241.63
1216.82	1243.67
1217.83	1246.19
1218.84	1247.51
1219.84	1248.14
1220.85	1249.82
1221.86	1251.37
1222.86	1251.53
1223.87	1251.42
1224.88	1251.05
1225.88	1250.27
1226.89	1246.47
1227.89	1241.88
1228.9	1236.02
1229.9	1230.09
1230.91	1222.47
1231.91	1212.43
1232.92	1201.03
1233.92	1189.41
1234.92	1178.5
1235.93	1167.88
1236.93	1157.46
1237.93	1147.42
1238.93	1139.39
1239.94	1132.66
1240.94	1126.49
1241.94	1120.78
1242.94	1115.41
1243.94	1109.96
1244.94	1104.85
1245.94	1100.71
1246.94	1097.13
1247.94	1093.74
1248.94	1091.68
1249.94	1089.99
1250.94	1088.88
1251.94	1088.22
1252.94	1088.32
1253.94	1089.92
1254.93	1092.37
1255.93	1094
1256.93	1096.53
1257.93	1097.54
1258.92	1098.78
1259.92	1102.4
1260.92	1108.89
1261.91	1110.74
1262.91	1110.93
1263.9	1109.16
1264.9	1105.24
1265.89	1100.09
1266.89	1094.8
1267.88	1087.32
1268.88	1078.99
1269.87	1070.65
1270.87	1062.71
1271.86	1054.84
1272.85	1049.87
1273.85	1046.06
1274.84	1043.57
1275.83	1038.74
1276.82	1037.78
1277.81	1038.86
1278.8	1042.55
1279.8	1048.35
1280.79	1055.94
1281.78	1063.42
1282.77	1069.68
1283.76	1075.53
1284.75	1079.5
1285.74	1080.99
1286.73	1080.48
1287.72	1076.22
1288.71	1070.93
1289.69	1062.86
1290.68	1054.82
1291.67	1045.2
1292.66	1034.71
1293.64	1025.68
1294.63	1016.11
1295.62	1006.37
1296.61	1002.55
1297.59	998.795
1298.58	1001.03
1299.56	1005.43
1300.55	1010.38
1301.53	1016.83
1302.52	1023.27
1303.5	1027.4
1304.49	1029.77
1305.47	1030.51
1306.46	1029.13
1307.44	1025.18
1308.42	1016.35
1309.41	1011.62
1310.39	1008.42
1311.37	1005.25
1312.35	1003.46
1313.34	998.361
1314.32	997.33
1315.3	999.603
1316.28	1001.48
1317.26	1008.5
1318.24	1018.05
1319.22	1031.27
1320.2	1045.82
1321.18	1059.91
1322.16	1075.98
1323.14	1087.4
1324.12	1107.23
1325.1	1114.31
1326.08	1115.67
1327.06	1112.61
1328.03	1106.22
1329.01	1094.62
1329.99	1071.76
1330.97	1054.71
1331.94	1038
1332.92	1020.97
1333.9	1000.82
1334.87	986.697
1335.85	973
1336.82	962.065
1337.8	953.528
1338.77	948.805
1339.75	946.958
1340.72	952.069
1341.7	950.874
1342.67	951.016
1343.64	951.733
1344.62	951.399
1345.59	950.233
1346.56	949.024
1347.54	949.134
1348.51	947.254
1349.48	945.306
1350.45	942.393
1351.42	938.861
1352.39	935
1353.37	932.148
1354.34	930.149
1355.31	927.404
1356.28	923.547
1357.25	919.663
1358.22	914.847
1359.19	911.078
1360.16	906.34
1361.12	901.858
1362.09	898.756
1363.06	896.08
1364.03	892.388
1365	887.883
1365.96	882.779
1366.93	879.279
1367.9	875.703
1368.86	874.387
1369.83	874.127
1370.8	874.036
1371.76	876.464
1372.73	879.539
1373.69	882.576
1374.66	885.311
1375.62	887.172
1376.59	889.923
1377.55	891.725
1378.52	893.229
1379.48	892.903
1380.44	892.663
1381.41	891.08
1382.37	889.38
1383.33	887.293
1384.3	884.964
1385.26	881.313
1386.22	877.447
1387.18	872.853
1388.14	869.577
1389.1	865.52
1390.06	862.359
1391.02	860.31
1391.98	858.106
1392.94	857.496
1393.9	855.989
1394.86	853.93
1395.82	851.436
1396.78	847.264
1397.74	848.807
1398.7	856.067
1399.66	856.013
1400.61	851.058
1401.57	833.171
1402.53	827.376
1403.49	828.394
1404.44	834.628
1405.4	832.858
1406.36	831.529
1407.31	828.871
1408.27	831.222
1409.22	832.806
1410.18	832.016
1411.13	828.151
1412.09	824.709
1413.04	821.737
1414	824.007
1414.95	822.705
1415.9	821.389
1416.86	820.534
1417.81	820.524
1418.76	821.598
1419.72	822.492
1420.67	823.246
1421.62	823.404
1422.57	827.143
1423.52	828.19
1424.47	828.522
1425.42	830.143
1426.38	831.297
1427.33	832.254
1428.28	834.811
1429.23	835.98
1430.18	838.993
1431.12	843.043
1432.07	846.506
1433.02	847.296
1433.97	847.649
1434.92	847.644
1435.87	848.408
1436.82	848.635
1437.76	847.409
1438.71	844.137
1439.66	840.099
1440.6	836.785
1441.55	832.937
1442.5	829.589
1443.44	827.278
1444.39	825.893
1445.33	823.74
1446.28	818.093
1447.22	815.569
1448.17	811.659
1449.11	808.47
1450.06	802.912
1451	803.226
1451.94	805.421
1452.89	806.279
1453.83	802.864
1454.77	798.535
1455.71	793.453
1456.66	787.18
1457.6	779.806
1458.54	773.819
1459.48	757.548
1460.42	762.299
1461.36	764.045
1462.3	763.954
1463.24	765.178
1464.18	764.979
1465.12	765.325
1466.06	763.58
1467	760.704
1467.94	760.383
1468.88	760.399
1469.82	760.016
1470.76	759.477
1471.69	759.034
1472.63	758.091
1473.57	757.306
1474.51	756.967
1475.44	757.198
1476.38	757.94
1477.32	756.725
1478.25	755.476
1479.19	754.773
1480.12	754.709
1481.06	755.182
1481.99	755.908
1482.93	757.508
1483.86	760.031
1484.8	762.238
1485.73	764.452
1486.67	766.967
1487.6	768.371
1488.53	769.438
1489.47	770.052
1490.4	769.251
1491.33	766.289
1492.26	763.38
1493.19	758.817
1494.13	755.401
1495.06	751.416
1495.99	746.068
1496.92	741.972
1497.85	738.476
1498.78	736.791
1499.71	736.004
1500.64	736.02
1501.57	736.813
1502.5	736.811
1503.43	738.731
1504.36	743.301
1505.28	748.09
1506.21	752.203
1507.14	758.316
1508.07	763.333
1509	770.189
1509.92	777.285
1510.85	787.099
1511.78	798.591
1512.7	811.293
1513.63	825.23
1514.55	840.646
1515.48	858.168
1516.4	876.38
1517.33	894.857
1518.25	913.837
1519.18	932.788
1520.1	949.01
1521.03	964.056
1521.95	977.264
1522.87	989.1
1523.8	996.458
1524.72	1002.19
1525.64	1008.9
1526.57	1003.48
1527.49	998.053
1528.41	984.934
1529.33	968.714
1530.25	950.781
1531.17	931.597
1532.1	910.889
1533.02	890.181
1533.94	869.381
1534.86	850.371
1535.78	832.673
1536.7	822.478
1537.61	806.821
1538.53	790.364
1539.45	775.767
1540.37	762.385
1541.29	750.521
1542.21	741.146
1543.12	733.352
1544.04	727.053
1544.96	722.045
1545.88	716.889
1546.79	713.805
1547.71	710.221
1548.63	707.693
1549.54	705.128
1550.46	700.667
1551.37	695.762
1552.29	689.294
1553.2	681.835
1554.12	674.161
1555.03	665.139
1555.95	656.451
1556.86	647.554
1557.77	638.341
1558.69	628.89
1559.6	619.933
1560.51	611.327
1561.42	601.929
1562.34	592.815
1563.25	583.567
1564.16	576.779
1565.07	569.69
1565.98	562.679
1566.89	556.233
1567.8	550.873
1568.71	545.893
1569.62	541.84
1570.53	539.087
1571.44	536.343
1572.35	533.57
1573.26	529.719
1574.17	526.227
1575.08	522.629
1575.99	518.832
1576.9	516.33
1577.8	512.306
1578.71	508.151
1579.62	504.31
1580.53	499.943
1581.43	495.572
1582.34	491.06
1583.25	486.605
1584.15	481.946
1585.06	477.778
1585.96	474.54
1586.87	471.746
1587.77	469.135
1588.68	466.77
1589.58	465.139
1590.49	464.178
1591.39	463.385
1592.29	462.167
1593.2	460.788
1594.1	459.55
1595	458.026
1595.91	456.45
1596.81	454.741
1597.71	452.854
1598.61	450.962
1599.51	448.641
1600.41	446.582
1601.32	444.387
1602.22	441.486
1603.12	438.281
1604.02	434.938
1604.92	431.615
1605.82	427.609
1606.72	423.867
1607.62	420.021
1608.51	415.456
1609.41	410.825
1610.31	405.672
1611.21	400.673
1612.11	395.918
1613.01	391.902
1613.9	388.321
1614.8	384.892
1615.7	381.835
1616.59	378.474
1617.49	375.028
1618.39	371.198
1619.28	366.784
1620.18	361.245
1621.07	358.405
1621.97	354.294
1622.86	350.488
1623.76	346.705
1624.65	342.665
1625.55	338.729
1626.44	334.771
1627.33	330.977
1628.23	327.415
1629.12	323.987
1630.01	320.829
1630.91	317.083
1631.8	313.766
1632.67	311.495
1633.6	310.935
1634.53	309.926
1635.46	309.03
1636.39	308.5
1637.31	307.525
1638.24	306.202
1639.17	304.802
1640.1	303.87
1641.02	303.758
1641.95	304
1642.88	304.566
1643.8	305.496
1644.73	306.632
1645.65	308.117
1646.58	309.751
1647.5	310.25
1648.43	311.136
1649.35	311.893
1650.28	312.507
1651.2	312.36
1652.13	312.233
1653.05	310.795
1653.97	310.143
1654.9	309.44
1655.82	308.528
1656.74	307.737
1657.66	306.976
1658.59	306.589
1659.51	306.34
1660.43	306.048
1661.35	307.148
1662.27	307.093
1663.2	305.735
1664.12	304.35
1665.04	302.789
1665.96	300.835
1666.88	299.388
1667.8	297.418
1668.72	296.127
1669.64	295.298
1670.56	294.898
1671.48	294.349
1672.4	295.409
1673.31	296.62
1674.23	297.288
1675.15	298.25
1676.07	299.148
1676.99	300.331
1677.9	300.469
1678.82	300.262
1679.74	300.04
1680.66	299.606
1681.57	299.286
1682.49	298.741
1683.41	297.578
1684.32	295.748
1685.24	294.207
1686.15	292.424
1687.07	289.733
1687.98	286.636
1688.9	284.201
1689.81	281.755
1690.73	280.322
1691.64	279.248
1692.56	278.048
1693.47	277.654
1694.38	277.408
1695.3	277.413
1696.21	276.985
1697.12	276.743
1698.04	276.527
1698.95	277.254
1699.86	278.038
1700.77	278.476
1701.68	279.257
1702.6	279.471
1703.51	279.074
1704.42	277.278
1705.33	274.683
1706.24	273.031
1707.15	271.04
1708.06	269.805
1708.97	268.452
1709.88	267.736
1710.79	267.416
1711.7	267.734
1712.61	268.379
1713.52	268.725
1714.43	269.288
1715.33	269.897
1716.24	269.801
1717.15	269.664
1718.06	268.801
1718.97	267.478
1719.87	265.851
1720.78	263.704
1721.69	261.408
1722.59	259.712
1723.5	258.419
1724.41	256.999
1725.31	255.73
1726.22	255.714
1727.12	255.715
1728.03	256.718
1728.93	257.393
1729.84	257.555
1730.74	257.01
1731.65	256.259
1732.55	255.352
1733.46	254.297
1734.36	254.453
1735.26	254.098
1736.17	254.13
1737.07	253.84
1737.97	253.534
1738.87	253.895
1739.78	253.768
1740.68	253.928
1741.58	254.947
1742.48	256.067
1743.38	257.622
1744.29	258.841
1745.19	259.504
1746.09	259.725
1746.99	259.557
1747.89	258.255
1748.79	257.008
1749.69	255.635
1750.59	254.726
1751.49	253.978
1752.39	252.877
1753.29	251.845
1754.18	250.418
1755.08	248.647
1755.98	246.769
1756.88	244.839
1757.78	243.301
1758.67	243.211
1759.57	243.478
1760.47	243.626
1761.37	243.164
1762.26	243.246
1763.16	242.968
1764.06	242.324
1764.95	242.284
1765.85	242.865
1766.74	243.85
1767.64	244.655
1768.53	245.148
1769.43	244.865
1770.32	243.994
1771.22	243.565
1772.11	242.547
1773.01	241.325
1773.9	239.968
1774.79	238.485
1775.69	237.577
1776.58	237.542
1777.47	237.104
1778.37	236.294
1779.26	235.47
1780.15	234.688
1781.04	234.053
1781.93	233.336
1782.83	233.11
1783.72	232.35
1784.61	231.728
1785.5	231.277
1786.39	231.048
1787.28	231.293
1788.17	231.559
1789.06	231.997
1789.95	232.035
1790.84	232.289
1791.73	232.25
1792.62	232.78
1793.51	233.15
1794.4	233.317
1795.28	233.039
1796.17	232.884
1797.06	231.833
1797.95	230.997
1798.84	228.261
1799.72	224.352
