Acq. time (s)=	15
Accumulations=	2
Range (cm-¹)=	600...1800
Windows=	2
Autofocus=	Off
AutoExposure=	Off
Spike filter=	Multiple accum.
Delay time (s)=	1
Binning=	1
Readout mode=	Signal
DeNoise=	Standard
ICS correction=	Off
Dark correction=	Off
Inst. Process=	Off
Instrument=	XploRA
Detector=	Syncerity
Objective=	x20LWD
Grating=	1200 gr/mm
Filter=	25%
Laser (nm)=	785 
Slit (µm)=	100 
Hole (µm)=	300 
Laser pol=	None
Raman pol=	None
Output=	Camera
StageXY=	Marzhauser
StageZ=	
X (µm)=	-343.8
Y (µm)=	4025.8
Project=	
Sample=	
Site=	
Title=	CLs P3
Remark=	
Date=	15.10.2021 17:09
Operator=	
Power=	
Acquired=	15.10.2021 17:09:43
601.097	668.872
602.266	668.616
603.435	673.016
604.603	678.837
605.771	683.517
606.939	686.237
608.106	688.919
609.273	691.752
610.44	694.448
611.606	697.263
612.772	700.433
613.938	703.426
615.104	706.389
616.268	710.063
617.433	713.526
618.598	717.25
619.763	719.878
620.926	721.595
622.091	723.237
623.254	725.086
624.417	726.859
625.58	728.349
626.742	730.782
627.906	732.688
629.068	733.593
630.229	733.27
631.391	732.159
632.551	732.576
633.712	731.829
634.873	731.009
636.033	730.987
637.193	730.401
638.352	729.884
639.512	729.737
640.671	729.178
641.83	726.963
642.988	725.087
644.147	723.659
645.305	722.524
646.462	721.38
647.62	720.69
648.777	719.459
649.934	718.838
651.09	717.268
652.247	715.669
653.402	715.649
654.558	715.959
655.713	716.252
656.868	715.493
658.023	714.783
659.177	714.268
660.331	713.277
661.485	712.17
662.639	711.522
663.792	711.702
664.945	712.59
666.098	713.058
667.25	713.888
668.402	714.842
669.554	715.582
670.705	717.15
671.857	718.16
673.007	718.994
674.158	719.051
675.309	718.891
676.459	719.423
677.609	718.844
678.758	717.374
679.907	715.514
681.056	714.419
682.205	712.499
683.353	711.214
684.501	710.315
685.649	710.152
686.796	711.254
687.943	712.234
689.09	713.323
690.236	712.998
691.383	712.203
692.529	710.478
693.675	708.345
694.82	707.782
695.965	707.628
697.11	706.911
698.254	704.842
699.398	703.711
700.542	702.413
701.686	701.044
702.829	700.633
703.973	700.346
705.116	698.02
706.258	695.829
707.4	693.474
708.542	691.236
709.684	689.377
710.825	687.433
711.966	686.056
713.107	684.205
714.247	682.127
715.387	679.955
716.527	677.885
717.667	676.946
718.806	675.176
719.945	673.798
721.084	672.101
722.223	671.653
723.361	671.344
724.498	670.252
725.636	668.567
726.773	667.367
727.91	666.278
729.047	666.023
730.183	667.344
731.32	669.159
732.455	671.238
733.591	673.217
734.726	673.698
735.861	675.431
736.996	677.164
738.13	677.66
739.264	678.391
740.398	678.822
741.532	679.793
742.665	680.289
743.797	680.057
744.93	679.859
746.063	677.169
747.195	674.15
748.326	671.692
749.458	669.202
750.589	667.632
751.72	667.398
752.851	667.538
753.981	666.111
755.111	663.754
756.241	660.265
757.371	656.756
758.499	653.303
759.628	649.072
760.757	644.708
761.885	641.131
763.014	637.4
764.141	633.954
765.268	630.623
766.395	629.262
767.523	627.532
768.649	625.357
769.775	624.597
770.901	622.954
772.027	620.549
773.153	618.932
774.277	617.341
775.403	615.823
776.527	614.582
777.651	613.772
778.776	612.911
779.899	613.56
781.023	612.787
782.146	611.249
783.269	609.16
784.39	606.457
785.513	602.722
786.635	598.9
787.757	595.804
788.878	593.743
789.999	591.549
791.12	591.044
792.24	590.634
793.36	591.897
794.48	592.725
795.6	592.972
796.72	591.501
797.839	589.994
798.957	588.78
800.076	587.706
801.194	586.453
802.313	585.081
803.43	583.881
804.547	581.263
805.664	579.693
806.781	579.874
807.898	580.269
809.014	579.206
810.13	577.604
811.245	575.905
812.361	575.329
813.476	575.114
814.591	574.543
815.705	572.72
816.819	570.682
817.933	570.289
819.047	569.854
820.16	570.05
821.273	571.104
822.386	572.261
823.498	575.744
824.611	575.275
825.723	573.052
826.835	569.417
827.946	567.401
829.057	564.048
830.167	561.369
831.278	559.267
832.388	559.755
833.498	561.305
834.608	560.886
835.717	560.543
836.826	560.872
837.935	560.45
839.043	561.02
840.152	560.953
841.26	560.364
842.367	559.393
843.474	558.504
844.582	557.063
845.688	555.309
846.794	552.199
847.901	549.704
849.006	547.421
850.112	545.388
851.217	543.523
852.322	542.899
853.428	541.768
854.532	540
855.636	538.871
856.74	537.432
857.843	537
858.947	536.225
860.05	535.07
861.153	534.98
862.255	534.606
863.358	534.241
864.459	534.329
865.561	535.843
866.662	536.734
867.763	535.701
868.864	534.918
869.964	532.57
871.065	529.292
872.165	526.11
873.264	522.294
874.363	518.136
875.463	513.642
876.561	510.727
877.66	508.413
878.758	506.419
879.856	506.269
880.954	509.433
882.051	509.273
883.148	508.909
884.244	509.436
885.341	510.19
886.437	510.612
887.533	511.517
888.629	511.813
889.724	512.133
890.819	513.559
891.914	514.757
893.009	515.315
894.102	516.228
895.197	516.98
896.29	518.255
897.384	518.295
898.477	517.526
899.569	516.474
900.662	514.488
901.754	512.857
902.846	512.283
903.938	510.973
905.029	510.107
906.12	508.525
907.211	506.106
908.301	503.881
909.391	502.977
910.481	501.909
911.571	501.214
912.66	500.748
913.749	500.689
914.838	499.74
915.927	498.889
917.015	498.679
918.103	497.973
919.191	496.98
920.279	496.04
921.365	495.71
922.452	494.428
923.539	494.203
924.625	494.323
925.711	494.219
926.796	493.887
927.882	492.645
928.967	490.798
930.052	489.129
931.136	486.926
932.221	483.612
933.305	479.348
934.389	475.567
935.472	471.919
936.555	468.041
937.638	465.124
938.721	462.414
939.802	459.362
940.885	456.525
941.966	453.754
943.048	452.161
944.129	450.313
945.209	449.515
946.29	449.217
947.371	449.786
948.451	448.715
949.531	447.419
950.61	446.663
951.689	445.76
952.768	445.899
953.847	446.085
954.925	445.969
956.003	446.557
957.081	448.081
958.158	449.497
959.236	450.317
960.312	449.686
961.389	447.999
962.465	446.353
963.542	444.965
964.617	443.598
965.693	442.203
966.768	440.694
967.843	440.291
968.918	439.614
969.991	439.121
971.066	440.448
972.139	442.212
973.213	443.565
974.286	444.456
975.359	444.731
976.432	445.516
977.504	446.721
978.576	448.554
979.648	449.784
980.72	451.25
981.791	451.889
982.862	453.443
983.933	455.388
985.004	457.114
986.074	457.862
987.143	457.393
988.213	456.827
989.282	455.81
990.351	454.07
991.42	452.468
992.489	451.539
993.557	450.333
994.624	447.324
995.692	445.995
996.76	445.182
997.827	444.731
998.893	443.999
999.96	443.965
1001.03	442.851
1002.09	441.492
1003.16	440.205
1004.22	439.925
1005.29	437.837
1006.35	433.004
1007.42	427.867
1008.48	422.765
1009.54	418.206
1010.61	414.54
1011.67	410.888
1012.74	407.737
1013.8	404.603
1014.86	402.311
1015.92	400.352
1016.99	399.448
1018.05	401.534
1019.11	401.044
1020.17	397.813
1021.23	395.999
1022.29	395.375
1023.35	395.136
1024.41	395.042
1025.47	395.281
1026.53	395.279
1027.59	395.592
1028.65	396.366
1029.71	397.243
1030.77	397.074
1031.82	396.964
1032.88	396.299
1033.94	395.106
1035	393.836
1036.05	392.175
1037.11	391.813
1038.17	392.224
1039.22	393.174
1040.28	394.057
1041.33	393.683
1042.39	393.44
1043.44	392.621
1044.5	391.876
1045.55	391.95
1046.61	391.862
1047.66	391.291
1048.71	390.589
1049.77	389.764
1050.82	388.758
1051.87	388.077
1052.93	386.842
1053.98	385.238
1055.03	383.92
1056.08	383.49
1057.13	384.041
1058.18	385.078
1059.23	386.696
1060.29	386.931
1061.34	386.796
1062.39	385.73
1063.44	384.639
1064.48	383.604
1065.53	382.724
1066.58	381.45
1067.63	380.522
1068.68	379.329
1069.73	378.077
1070.78	376.32
1071.82	374.668
1072.87	372.629
1073.92	370.751
1074.96	368.969
1076.01	367.589
1077.06	366.298
1078.1	364.468
1079.15	363.553
1080.19	362.688
1081.24	361.641
1082.28	361.073
1083.33	360.665
1084.37	360.38
1085.41	359.559
1086.46	358.888
1087.5	357.85
1088.54	356.974
1089.59	356.113
1090.63	355.748
1091.67	355.664
1092.71	354.845
1093.76	354.563
1094.8	354.32
1095.84	353.741
1096.88	354.07
1097.92	354.941
1098.96	355.974
1100	356.394
1101.04	357.306
1102.08	357.737
1103.12	358.434
1104.16	358.949
1105.19	359.289
1106.23	359.702
1107.27	360.095
1108.31	360.488
1109.35	360.239
1110.38	360.032
1111.42	360.367
1112.46	360.101
1113.49	358.884
1114.53	358.634
1115.56	358.752
1116.6	357.072
1117.64	355.725
1118.67	354.402
1119.71	353.274
1120.74	352.168
1121.77	351.469
1122.81	350.527
1123.84	349.858
1124.87	350.31
1125.91	349.848
1126.94	347.417
1127.97	345.917
1129	345.413
1130.04	345.448
1131.07	347.455
1132.1	349.135
1133.13	351.203
1134.16	352.869
1135.19	355.294
1136.22	357.518
1137.25	359.475
1138.28	361.64
1139.31	363.523
1140.34	364.448
1141.37	365.394
1142.4	365.22
1143.43	365.847
1144.45	367.261
1145.48	368.851
1146.51	370.629
1147.54	372.407
1148.56	374.816
1149.59	377.432
1150.62	379.284
1151.64	381.874
1152.67	382.371
1153.69	383.153
1154.72	382.826
1155.74	384.112
1156.77	383.223
1157.79	380.788
1158.82	377.526
1159.84	372.881
1160.86	367.867
1161.89	362.218
1162.91	356.146
1163.93	351.004
1164.96	346.567
1165.98	342.808
1167	339.919
1168.02	337.761
1169.04	335.853
1170.06	333.872
1171.09	332.454
1172.11	331.435
1173.13	333.038
1174.15	334.225
1175.17	335.156
1176.19	336.919
1177.2	338.822
1178.22	341.003
1179.24	343.06
1180.26	345.333
1181.28	346.887
1182.3	348.656
1183.31	350.199
1184.33	350.626
1185.35	350.447
1186.37	349.12
1187.38	346.61
1188.4	343.44
1189.41	339.32
1190.43	335.389
1191.45	331.273
1192.46	327.255
1193.47	322.793
1194.49	318.995
1195.5	314.95
1196.52	311.796
1197.53	309.349
1198.55	307.833
1199.56	307.085
1200.57	307.203
1201.58	307.633
1202.6	308.204
1203.61	309.03
1204.62	310.29
1205.63	311.982
1206.64	313.402
1207.65	314.903
1208.66	315.685
1209.67	316.136
1210.68	316.637
1211.69	315.854
1212.7	315.192
1213.71	313.839
1214.72	312.872
1215.73	312.564
1216.74	312.509
1217.75	312.641
1218.76	312.735
1219.76	312.286
1220.77	312.397
1221.78	312.389
1222.79	312.965
1223.79	313.374
1224.8	313.699
1225.8	313.396
1226.81	312.983
1227.82	311.13
1228.82	308.751
1229.83	305.995
1230.83	303.181
1231.83	300.384
1232.84	298.047
1233.84	295.642
1234.85	292.758
1235.85	290.727
1236.85	287.805
1237.86	284.715
1238.86	282.602
1239.86	280.651
1240.86	279.316
1241.86	278.912
1242.86	279.314
1243.87	279.36
1244.87	279.754
1245.87	279.99
1246.87	280.126
1247.87	279.96
1248.87	279.186
1249.87	279.064
1250.87	279.113
1251.87	279.497
1252.86	279.564
1253.86	279.604
1254.86	279.335
1255.86	278.637
1256.86	277.463
1257.85	276.608
1258.85	276.108
1259.85	275.272
1260.84	274.079
1261.84	273.652
1262.84	271.944
1263.83	269.88
1264.83	268.284
1265.82	267.452
1266.82	266.497
1267.81	266.429
1268.81	266.343
1269.8	266.744
1270.79	267.341
1271.79	268.274
1272.78	269.013
1273.77	269.272
1274.77	270.026
1275.76	270.75
1276.75	272.161
1277.74	273.744
1278.73	275.953
1279.73	277.896
1280.72	279.274
1281.71	279.708
1282.7	279.033
1283.69	277.881
1284.68	276.047
1285.67	274.803
1286.66	272.812
1287.65	270.667
1288.64	267.784
1289.62	265.67
1290.61	264.277
1291.6	262.061
1292.59	260.628
1293.58	259.381
1294.56	258.969
1295.55	258.555
1296.54	258.651
1297.52	259.479
1298.51	260.89
1299.5	261.763
1300.48	262.608
1301.47	263.769
1302.45	264.529
1303.44	264.788
1304.42	264.342
1305.41	263.934
1306.39	261.891
1307.37	259.738
1308.36	258.511
1309.34	257.075
1310.32	255.38
1311.31	253.528
1312.29	252.281
1313.27	252.058
1314.25	251.462
1315.23	251.124
1316.21	251.95
1317.2	253.26
1318.18	255.341
1319.16	257.667
1320.14	261.693
1321.12	265.494
1322.1	268.482
1323.08	271.701
1324.06	274.148
1325.03	275.165
1326.01	274.073
1326.99	273.397
1327.97	272.308
1328.95	270.333
1329.92	266.487
1330.9	261.805
1331.88	257.348
1332.86	253.034
1333.83	249.495
1334.81	246.948
1335.78	245.428
1336.76	244.948
1337.74	245.152
1338.71	245.199
1339.69	245.948
1340.66	245.813
1341.63	245.317
1342.61	245.019
1343.58	244.703
1344.56	243.722
1345.53	242.394
1346.5	241.182
1347.47	239.256
1348.45	238.269
1349.42	237.1
1350.39	236.338
1351.36	235.597
1352.33	235.776
1353.31	235.932
1354.28	236.084
1355.25	235.939
1356.22	235.747
1357.19	235.18
1358.16	234.826
1359.13	234.088
1360.09	233.645
1361.06	233.173
1362.03	232.659
1363	231.928
1363.97	231.398
1364.94	230.865
1365.9	230.255
1366.87	229.462
1367.84	229.047
1368.81	228.385
1369.77	228.514
1370.74	228.289
1371.7	227.76
1372.67	226.945
1373.64	226.344
1374.6	225.717
1375.57	225.103
1376.53	224.448
1377.49	224.287
1378.46	223.655
1379.42	222.59
1380.39	221.605
1381.35	221.173
1382.31	220.587
1383.28	220.082
1384.24	219.995
1385.2	219.877
1386.16	220.094
1387.12	220.21
1388.09	220.273
1389.05	220.046
1390.01	219.807
1390.97	218.984
1391.93	218.156
1392.89	217.542
1393.85	217.091
1394.81	216.185
1395.77	215.245
1396.73	214.546
1397.68	213.477
1398.64	212.295
1399.6	211.753
1400.56	210.817
1401.52	209.278
1402.47	207.593
1403.43	206.427
1404.39	204.645
1405.35	202.262
1406.3	201.118
1407.26	200.676
1408.21	200.152
1409.17	200.301
1410.12	201.07
1411.08	202.513
1412.03	203.888
1412.99	204.571
1413.94	205.112
1414.9	205.605
1415.85	206.27
1416.8	206.585
1417.76	206.383
1418.71	206.04
1419.66	205.571
1420.62	204.652
1421.57	204.626
1422.52	204.818
1423.47	205.322
1424.42	205.9
1425.37	207.137
1426.32	208.397
1427.27	211.029
1428.22	212.485
1429.17	213.359
1430.12	214.011
1431.07	214.115
1432.02	213.75
1432.97	212.696
1433.92	212.223
1434.87	212.138
1435.82	211.869
1436.76	211.865
1437.71	211.719
1438.66	211.423
1439.61	211.257
1440.55	211.397
1441.5	211.446
1442.45	211.705
1443.39	211.448
1444.34	211.188
1445.28	210.077
1446.23	209.796
1447.17	208.431
1448.12	206.799
1449.06	204.996
1450.01	202.318
1450.95	200.313
1451.89	196.028
1452.84	194.055
1453.78	192.572
1454.72	191.952
1455.67	192.462
1456.61	193.427
1457.55	194.86
1458.49	196.461
1459.43	195.556
1460.37	195.731
1461.32	195.776
1462.26	195.81
1463.2	195.736
1464.14	195.786
1465.08	195.663
1466.02	195.741
1466.96	195.281
1467.89	193.833
1468.83	193.571
1469.77	193.043
1470.71	192.661
1471.65	192.107
1472.59	191.673
1473.52	192.326
1474.46	192.594
1475.4	192.789
1476.33	193.224
1477.27	193.296
1478.21	193.168
1479.14	193.088
1480.08	192.936
1481.01	192.462
1481.95	191.326
1482.88	190.346
1483.82	189.322
1484.75	188.822
1485.69	188.487
1486.62	189.149
1487.56	190.387
1488.49	190.672
1489.42	189.707
1490.35	189.134
1491.29	188.827
1492.22	188.617
1493.15	187.869
1494.08	187.451
1495.01	187.214
1495.94	186.813
1496.88	186.058
1497.81	185.573
1498.74	184.859
1499.67	184.452
1500.6	183.909
1501.53	183.395
1502.46	182.643
1503.39	182.074
1504.31	182.371
1505.24	182.837
1506.17	183.743
1507.1	184.538
1508.03	185.817
1508.95	188.738
1509.88	191.879
1510.81	195.839
1511.74	200.189
1512.66	205.097
1513.59	210.723
1514.51	216.376
1515.44	221.399
1516.36	227.106
1517.29	232.442
1518.21	237.464
1519.14	241.836
1520.06	245.723
1520.99	248.523
1521.91	250.906
1522.84	253.574
1523.76	254.459
1524.68	254.901
1525.6	255.076
1526.53	252.268
1527.45	248.968
1528.37	244.123
1529.29	238.352
1530.21	232.023
1531.14	226.044
1532.06	220.334
1532.98	214.335
1533.9	208.885
1534.82	204.232
1535.74	199.495
1536.66	197.406
1537.58	193.632
1538.5	190.431
1539.41	187.209
1540.33	184.278
1541.25	182.116
1542.17	180.866
1543.09	180.482
1544.01	180.362
1544.92	180.659
1545.84	180.712
1546.76	180.708
1547.67	180.515
1548.59	180.14
1549.51	179.854
1550.42	179.08
1551.34	178.566
1552.25	177.228
1553.17	176.306
1554.08	175.204
1555	173.775
1555.91	172.163
1556.82	170.039
1557.74	167.446
1558.65	165.511
1559.56	164.265
1560.48	162.923
1561.39	161.513
1562.3	159.995
1563.21	158.643
1564.13	157.011
1565.04	155.762
1565.95	154.586
1566.86	153.655
1567.77	153.012
1568.68	152.066
1569.59	151.555
1570.5	151.159
1571.41	150.922
1572.32	150.556
1573.23	150.344
1574.14	150.092
1575.05	150.04
1575.96	149.997
1576.86	150.374
1577.77	150.761
1578.68	151.201
1579.59	151.721
1580.49	152.313
1581.4	153.095
1582.31	153.759
1583.21	154.613
1584.12	155.266
1585.03	155.47
1585.93	155.533
1586.84	155.508
1587.74	155.602
1588.65	155.26
1589.55	154.616
1590.46	153.985
1591.36	153.6
1592.26	153.41
1593.17	153.359
1594.07	153.5
1594.97	153.6
1595.88	153.901
1596.78	154.391
1597.68	154.851
1598.58	155.231
1599.48	155.5
1600.39	155.326
1601.29	154.644
1602.19	153.876
1603.09	153.087
1603.99	152.666
1604.89	152.372
1605.79	151.606
1606.69	151.058
1607.59	150.43
1608.49	149.817
1609.39	150.125
1610.28	149.917
1611.18	149.92
1612.08	149.884
1612.98	150.019
1613.88	150.149
1614.77	150.302
1615.67	149.978
1616.57	149.312
1617.46	148.329
1618.36	147.178
1619.26	145.92
1620.15	144.736
1621.05	143.617
1621.94	142.666
1622.84	141.83
1623.73	140.764
1624.63	139.552
1625.52	138.426
1626.41	137.296
1627.31	136.363
1628.2	135.672
1629.09	135.289
1629.99	135.255
1630.88	135.215
1631.77	135.066
1632.65	135.145
1633.58	135.613
1634.51	134.976
1635.43	135.064
1636.36	134.933
1637.29	135.16
1638.22	135.551
1639.15	135.769
1640.07	135.872
1641	135.603
1641.93	135.067
1642.85	134.406
1643.78	133.826
1644.7	133.261
1645.63	133.047
1646.55	132.753
1647.48	132.17
1648.41	131.463
1649.33	130.658
1650.25	129.735
1651.18	128.999
1652.1	128.615
1653.03	127.782
1653.95	127.113
1654.87	126.52
1655.8	126.509
1656.72	126.094
1657.64	125.476
1658.56	125.224
1659.49	125.983
1660.41	126.426
1661.33	127.134
1662.25	127.919
1663.17	128.377
1664.1	128.783
1665.02	129.181
1665.94	129.777
1666.86	130.39
1667.78	130.548
1668.7	130.481
1669.62	130.932
1670.54	130.737
1671.46	129.559
1672.38	128.346
1673.29	127.243
1674.21	126.432
1675.13	125.418
1676.05	125.046
1676.97	124.627
1677.89	124.822
1678.8	125.172
1679.72	126.094
1680.64	127.102
1681.55	127.605
1682.47	128.176
1683.39	128.664
1684.3	129.095
1685.22	129.296
1686.14	129.087
1687.05	128.333
1687.97	128.174
1688.88	127.549
1689.8	126.981
1690.71	126.575
1691.63	125.971
1692.54	125.505
1693.45	124.671
1694.37	124.141
1695.28	123.56
1696.19	123.509
1697.11	123.177
1698.02	122.525
1698.93	122.108
1699.84	121.285
1700.76	120.638
1701.67	119.291
1702.58	117.668
1703.49	116.261
1704.4	115.137
1705.31	114.361
1706.22	113.719
1707.14	113.337
1708.05	112.855
1708.96	112.257
1709.87	111.981
1710.78	112.85
1711.68	113.136
1712.59	112.936
1713.5	113.024
1714.41	113.768
1715.32	114.51
1716.23	114.939
1717.14	115.062
1718.04	114.065
1718.95	113.834
1719.86	113.584
1720.77	113.345
1721.67	112.716
1722.58	112.297
1723.49	111.688
1724.39	112.201
1725.3	112.184
1726.21	112.497
1727.11	112.668
1728.02	112.629
1728.92	112.661
1729.83	112.443
1730.73	111.985
1731.64	111.184
1732.54	109.046
1733.44	108.035
1734.35	107.55
1735.25	107.137
1736.15	106.717
1737.06	106.991
1737.96	107.303
1738.86	108.147
1739.77	109.079
1740.67	109.739
1741.57	109.97
1742.47	110.138
1743.37	109.795
1744.27	109.327
1745.18	109.056
1746.08	108.424
1746.98	107.527
1747.88	106.469
1748.78	105.313
1749.68	104.266
1750.58	103.132
1751.48	102.236
1752.38	102.182
1753.28	102.071
1754.17	102.152
1755.07	103.142
1755.97	103.912
1756.87	104.929
1757.77	105.885
1758.66	106.508
1759.56	106.779
1760.46	106.91
1761.36	107.161
1762.25	107.803
1763.15	107.883
1764.05	107.989
1764.94	108.443
1765.84	108.7
1766.73	108.988
1767.63	109.1
1768.53	109.262
1769.42	109.309
1770.32	108.621
1771.21	107.961
1772.1	107.57
1773	106.92
1773.89	106.165
1774.79	105.541
1775.68	104.488
1776.57	103.396
1777.47	102.011
1778.36	101.005
1779.25	100.292
1780.14	99.4853
1781.04	98.8521
1781.93	98.9664
1782.82	99.2508
1783.71	99.497
1784.6	100.126
1785.49	100.793
1786.38	101.327
1787.27	101.709
1788.17	101.765
1789.06	102.155
1789.95	102.319
1790.84	102.247
1791.72	102.331
1792.61	102.111
1793.5	101.801
1794.39	101.068
1795.28	100.387
1796.17	100.297
1797.06	99.1935
1797.94	98.3005
1798.83	97.592
1799.72	96.4877
