Acq. time (s)=	15
Accumulations=	2
Range (cm-¹)=	600...1800
Windows=	2
Autofocus=	Off
AutoExposure=	Off
Spike filter=	Multiple accum.
Delay time (s)=	1
Binning=	1
Readout mode=	Signal
DeNoise=	Standard
ICS correction=	Off
Dark correction=	Off
Inst. Process=	Off
Instrument=	XploRA
Detector=	Syncerity
Objective=	x20LWD
Grating=	1200 gr/mm
Filter=	25%
Laser (nm)=	785 
Slit (µm)=	100 
Hole (µm)=	300 
Laser pol=	None
Raman pol=	None
Output=	Camera
StageXY=	Marzhauser
StageZ=	
X (µm)=	-6373.3
Y (µm)=	4822.7
Project=	
Sample=	
Site=	
Title=	CLa P1
Remark=	
Date=	15.10.2021 14:50
Operator=	
Power=	
Acquired=	15.10.2021 14:50:45
601.097	171.846
602.266	168.734
603.435	166.533
604.603	166.236
605.771	166.208
606.939	166.141
608.106	166.14
609.273	166.365
610.44	166.594
611.606	167.117
612.772	167.569
613.938	168.139
615.104	168.709
616.268	169.293
617.433	169.872
618.598	170.439
619.763	171.035
620.926	171.535
622.091	172.048
623.254	172.427
624.417	172.827
625.58	173.011
626.742	173.165
627.906	173.262
629.068	173.387
630.229	173.285
631.391	173.13
632.551	172.951
633.712	172.757
634.873	172.508
636.033	172.257
637.193	171.979
638.352	171.689
639.512	171.447
640.671	171.206
641.83	171.159
642.988	171.035
644.147	171.061
645.305	171.085
646.462	171.129
647.62	171.238
648.777	171.115
649.934	171.356
651.09	171.624
652.247	171.901
653.402	172.204
654.558	172.512
655.713	172.827
656.868	173.127
658.023	173.444
659.177	173.732
660.331	174.147
661.485	174.397
662.639	174.581
663.792	174.706
664.945	174.814
666.098	174.778
667.25	174.837
668.402	174.812
669.554	174.828
670.705	174.792
671.857	174.77
673.007	174.714
674.158	174.66
675.309	174.589
676.459	174.512
677.609	174.446
678.758	174.361
679.907	174.314
681.056	174.263
682.205	174.239
683.353	174.199
684.501	174.214
685.649	174.332
686.796	174.516
687.943	174.608
689.09	174.751
690.236	174.9
691.383	175.057
692.529	175.294
693.675	175.582
694.82	175.959
695.965	176.802
697.11	177.32
698.254	177.865
699.398	178.607
700.542	178.775
701.686	178.102
702.829	177.653
703.973	177.076
705.116	176.305
706.258	175.522
707.4	174.615
708.542	173.689
709.684	172.704
710.825	171.775
711.966	170.651
713.107	169.513
714.247	168.515
715.387	167.585
716.527	166.943
717.667	166.669
718.806	166.829
719.945	166.959
721.084	167.091
722.223	167.21
723.361	166.553
724.498	165.411
725.636	164.988
726.773	163.368
727.91	165.492
729.047	167.49
730.183	169.2
731.32	170.583
732.455	171.598
733.591	172.198
734.726	172.323
735.861	171.987
736.996	171.13
738.13	169.727
739.264	168.013
740.398	167.947
741.532	169.084
742.665	169.411
743.797	169.71
744.93	170.069
746.063	170.626
747.195	171.246
748.326	171.726
749.458	172.024
750.589	172.086
751.72	171.82
752.851	171.298
753.981	170.622
755.111	169.381
756.241	168.001
757.371	166.714
758.499	165.7
759.628	164.748
760.757	164.029
761.885	163.484
763.014	162.997
764.141	162.648
765.268	162.366
766.395	162.199
767.523	162.108
768.649	162.032
769.775	162.035
770.901	162.013
772.027	162.045
773.153	161.951
774.277	161.936
775.403	162.058
776.527	161.565
777.651	157.68
778.776	156.318
779.899	155.429
781.023	154.88
782.146	154.637
783.269	154.616
784.39	154.866
785.513	155.56
786.635	156.116
787.757	155.662
788.878	155.036
789.999	153.329
791.12	152.657
792.24	152.454
793.36	152.057
794.48	151.65
795.6	151.283
796.72	151.025
797.839	150.81
798.957	150.69
800.076	150.641
801.194	150.649
802.313	150.807
803.43	151.082
804.547	151.494
805.664	151.99
806.781	152.438
807.898	152.58
809.014	152.085
810.13	151.788
811.245	151.732
812.361	151.592
813.476	151.729
814.591	151.781
815.705	151.476
816.819	150.988
817.933	150.484
819.047	149.819
820.16	149.18
821.273	148.623
822.386	148.281
823.498	148.143
824.611	148.412
825.723	148.816
826.835	149.202
827.946	149.555
829.057	149.85
830.167	150.125
831.278	150.278
832.388	150.404
833.498	150.513
834.608	150.447
835.717	150.158
836.826	149.864
837.935	149.494
839.043	149.137
840.152	148.796
841.26	148.437
842.367	148.141
843.474	147.809
844.582	147.573
845.688	147.787
846.794	148.114
847.901	148.398
849.006	148.707
850.112	148.957
851.217	149.072
852.322	149.15
853.428	148.591
854.532	148.393
855.636	148.119
856.74	148.011
857.843	147.739
858.947	147.312
860.05	146.714
861.153	145.855
862.255	144.518
863.358	142.56
864.459	140.898
865.561	139.427
866.662	138.141
867.763	137.014
868.864	135.988
869.964	135.147
871.065	134.069
872.165	133.083
873.264	132.346
874.363	132.364
875.463	132.867
876.561	133.694
877.66	134.887
878.758	136.431
879.856	137.921
880.954	139.313
882.051	139.975
883.148	140.36
884.244	140.609
885.341	140.823
886.437	141.241
887.533	141.433
888.629	141.425
889.724	140.694
890.819	139.667
891.914	138.382
893.009	137.373
894.102	136.788
895.197	136.591
896.29	137.136
897.384	137.858
898.477	138.687
899.569	139.605
900.662	140.231
901.754	140.789
902.846	141.099
903.938	141.629
905.029	142.016
906.12	142.22
907.211	141.752
908.301	140.866
909.391	139.683
910.481	137.758
911.571	135.858
912.66	134.215
913.749	132.921
914.838	131.883
915.927	131.19
917.015	130.816
918.103	130.735
919.191	130.998
920.279	131.714
921.365	132.74
922.452	133.821
923.539	134.897
924.625	135.424
925.711	135.687
926.796	135.669
927.882	135.368
928.967	134.483
930.052	133.252
931.136	132.652
932.221	132.292
933.305	131.939
934.389	131.61
935.472	131.303
936.555	131.022
937.638	130.767
938.721	130.539
939.802	130.319
940.885	130.116
941.966	129.884
943.048	129.678
944.129	129.402
945.209	129.16
946.29	128.857
947.371	128.531
948.451	128.254
949.531	127.965
950.61	127.73
951.689	127.474
952.768	127.272
953.847	127.042
954.925	126.846
956.003	126.626
957.081	126.408
958.158	126.181
959.236	125.892
960.312	125.591
961.389	125.198
962.465	124.778
963.542	123.602
964.617	123.011
965.693	123.724
966.768	124.084
967.843	124.763
968.918	125.301
969.991	125.891
971.066	126.064
972.139	125.982
973.213	125.578
974.286	124.787
975.359	123.87
976.432	122.864
977.504	121.53
978.576	119.767
979.648	117.246
980.72	118.147
981.791	118.449
982.862	121.948
983.933	126.346
985.004	128.965
986.074	103.541
987.143	108.952
988.213	112.872
989.282	115.352
990.351	118.738
991.42	121.956
992.489	124.542
993.557	125.248
994.624	126.005
995.692	125.44
996.76	125.052
997.827	124.62
998.893	124.079
999.96	123.23
1001.03	122.191
1002.09	120.984
1003.16	119.736
1004.22	118.535
1005.29	117.27
1006.35	116.034
1007.42	114.923
1008.48	114.341
1009.54	114.197
1010.61	113.952
1011.67	113.477
1012.74	113.027
1013.8	112.701
1014.86	112.474
1015.92	111.943
1016.99	111.079
1018.05	110.203
1019.11	109.184
1020.17	108.24
1021.23	107.319
1022.29	106.468
1023.35	105.698
1024.41	105.112
1025.47	104.582
1026.53	104.232
1027.59	104.01
1028.65	104.037
1029.71	104.221
1030.77	104.579
1031.82	105.088
1032.88	105.622
1033.94	106.31
1035	107.173
1036.05	107.937
1037.11	108.626
1038.17	109.067
1039.22	109.323
1040.28	109.45
1041.33	109.357
1042.39	109.1
1043.44	108.776
1044.5	108.388
1045.55	107.869
1046.61	107.317
1047.66	106.693
1048.71	106.125
1049.77	105.568
1050.82	105.217
1051.87	105.16
1052.93	105.311
1053.98	106.092
1055.03	106.806
1056.08	107.472
1057.13	106.456
1058.18	106.107
1059.23	105.304
1060.29	105.366
1061.34	105.601
1062.39	105.954
1063.44	106.303
1064.48	106.729
1065.53	107.281
1066.58	107.939
1067.63	108.583
1068.68	109.249
1069.73	109.507
1070.78	109.48
1071.82	109.461
1072.87	109.447
1073.92	109.448
1074.96	109.392
1076.01	109.188
1077.06	109.006
1078.1	108.72
1079.15	108.353
1080.19	107.909
1081.24	107.242
1082.28	106.513
1083.33	105.831
1084.37	105.185
1085.41	104.566
1086.46	104.036
1087.5	103.52
1088.54	103.188
1089.59	103.066
1090.63	103.407
1091.67	103.757
1092.71	104.299
1093.76	105.002
1094.8	105.811
1095.84	106.631
1096.88	107.439
1097.92	108.087
1098.96	107.663
1100	107.212
1101.04	106.932
1102.08	106.871
1103.12	106.783
1104.16	106.709
1105.19	106.636
1106.23	106.648
1107.27	106.585
1108.31	106.839
1109.35	107.086
1110.38	107.279
1111.42	107.463
1112.46	107.555
1113.49	107.444
1114.53	107.273
1115.56	106.756
1116.6	106.116
1117.64	105.262
1118.67	104.323
1119.71	103.072
1120.74	101.67
1121.77	100.227
1122.81	98.8005
1123.84	97.4051
1124.87	96.4036
1125.91	95.9118
1126.94	95.542
1127.97	95.4728
1129	95.7566
1130.04	96.5868
1131.07	97.7007
1132.1	99.095
1133.13	100.699
1134.16	102.12
1135.19	103.728
1136.22	105.241
1137.25	106.656
1138.28	107.464
1139.31	107.866
1140.34	107.993
1141.37	107.837
1142.4	107.446
1143.43	107.164
1144.45	106.548
1145.48	104.699
1146.51	103.748
1147.54	103.058
1148.56	102.966
1149.59	103.275
1150.62	103.99
1151.64	104.713
1152.67	107.787
1153.69	108.427
1154.72	108.229
1155.74	107.662
1156.77	106.817
1157.79	105.801
1158.82	102.73
1159.84	101.079
1160.86	99.6366
1161.89	98.4048
1162.91	97.351
1163.93	96.3668
1164.96	95.5257
1165.98	94.787
1167	94.1824
1168.02	93.644
1169.04	93.2272
1170.06	92.8871
1171.09	92.648
1172.11	92.5988
1173.13	92.5528
1174.15	92.8821
1175.17	93.3844
1176.19	93.7947
1177.2	94.2134
1178.22	94.5818
1179.24	95.005
1180.26	94.9231
1181.28	94.8767
1182.3	94.9039
1183.31	94.7767
1184.33	94.6181
1185.35	94.4401
1186.37	94.2232
1187.38	93.9986
1188.4	93.7594
1189.41	93.4688
1190.43	93.2578
1191.45	93.0647
1192.46	92.9219
1193.47	92.8233
1194.49	92.9066
1195.5	92.9066
1196.52	92.933
1197.53	92.9612
1198.55	93.012
1199.56	93.0604
1200.57	93.1354
1201.58	93.1934
1202.6	93.2932
1203.61	93.3962
1204.62	93.4226
1205.63	93.5423
1206.64	93.4736
1207.65	93.3853
1208.66	93.0426
1209.67	92.8695
1210.68	92.6506
1211.69	92.4315
1212.7	92.2462
1213.71	92.0956
1214.72	91.9909
1215.73	91.9161
1216.74	91.9171
1217.75	92.5661
1218.76	93.2428
1219.76	93.7686
1220.77	94.3151
1221.78	94.7438
1222.79	94.3628
1223.79	93.9276
1224.8	93.4564
1225.8	92.7562
1226.81	92.4856
1227.82	92.4531
1228.82	92.3576
1229.83	92.2537
1230.83	92.0964
1231.83	91.9163
1232.84	91.6261
1233.84	91.3567
1234.85	91.0201
1235.85	90.6665
1236.85	90.3069
1237.86	89.8509
1238.86	89.3647
1239.86	88.7703
1240.86	88.1229
1241.86	87.3634
1242.86	86.5145
1243.87	85.5824
1244.87	84.5626
1245.87	83.5306
1246.87	82.9225
1247.87	83.7306
1248.87	83.5527
1249.87	83.3662
1250.87	83.194
1251.87	83.0632
1252.86	83.1007
1253.86	83.3353
1254.86	83.7048
1255.86	84.3503
1256.86	84.9131
1257.85	85.3518
1258.85	85.1515
1259.85	84.8371
1260.84	84.4608
1261.84	84.078
1262.84	83.6219
1263.83	83.2155
1264.83	82.8163
1265.82	82.5011
1266.82	82.1565
1267.81	81.9029
1268.81	81.4925
1269.8	81.1449
1270.79	80.8773
1271.79	80.7088
1272.78	80.8958
1273.77	81.4932
1274.77	82.514
1275.76	83.6648
1276.75	84.7934
1277.74	85.7594
1278.73	86.5981
1279.73	87.2218
1280.72	87.6055
1281.71	87.6889
1282.7	87.6662
1283.69	87.3328
1284.68	86.8832
1285.67	86.0947
1286.66	85.0579
1287.65	83.9095
1288.64	82.7376
1289.62	81.6247
1290.61	80.8188
1291.6	80.8342
1292.59	80.9907
1293.58	81.2843
1294.56	81.4281
1295.55	81.6403
1296.54	82.095
1297.52	82.3485
1298.51	81.919
1299.5	81.2458
1300.48	80.3904
1301.47	79.2584
1302.45	79.0947
1303.44	79.0323
1304.42	79.0195
1305.41	78.8749
1306.39	78.6803
1307.37	78.4235
1308.36	78.1731
1309.34	77.6719
1310.32	77.2147
1311.31	76.8074
1312.29	76.4551
1313.27	76.2229
1314.25	76.0832
1315.23	76.1152
1316.21	76.4542
1317.2	77.0061
1318.18	77.758
1319.16	78.7547
1320.14	79.9104
1321.12	81.1607
1322.1	82.5125
1323.08	83.9479
1324.06	85.2502
1325.03	85.5412
1326.01	85.2408
1326.99	84.2492
1327.97	82.9938
1328.95	81.4256
1329.92	79.9251
1330.9	78.5988
1331.88	77.4426
1332.86	76.4764
1333.83	75.6506
1334.81	75.1188
1335.78	74.7893
1336.76	74.6679
1337.74	74.6977
1338.71	74.906
1339.69	75.2063
1340.66	75.8872
1341.63	76.6582
1342.61	77.5044
1343.58	78.146
1344.56	77.9485
1345.53	77.8497
1346.5	77.9663
1347.47	78.3814
1348.45	78.4609
1349.42	78.4458
1350.39	78.3488
1351.36	78.2403
1352.33	78.2092
1353.31	77.9905
1354.28	77.7538
1355.25	77.4721
1356.22	77.1631
1357.19	76.8496
1358.16	76.5002
1359.13	76.1695
1360.09	75.8185
1361.06	75.4886
1362.03	75.0463
1363	74.7577
1363.97	74.4571
1364.94	74.1921
1365.9	73.9659
1366.87	73.7256
1367.84	73.5213
1368.81	73.3833
1369.77	73.2422
1370.74	73.1194
1371.7	72.9692
1372.67	72.7524
1373.64	72.5752
1374.6	72.3022
1375.57	72.0677
1376.53	71.7657
1377.49	71.4002
1378.46	70.8151
1379.42	70.5289
1380.39	70.3221
1381.35	70.2463
1382.31	70.7813
1383.28	71.4696
1384.24	72.6709
1385.2	73.8067
1386.16	74.9068
1387.12	75.7025
1388.09	76.3478
1389.05	76.741
1390.01	76.9023
1390.97	76.9748
1391.93	76.6749
1392.89	76.2609
1393.85	75.7352
1394.81	75.1082
1395.77	74.4736
1396.73	74.0518
1397.68	73.733
1398.64	73.4886
1399.6	73.2995
1400.56	73.1784
1401.52	73.1141
1402.47	73.0715
1403.43	73.0058
1404.39	72.99
1405.35	72.761
1406.3	72.4948
1407.26	72.1681
1408.21	71.6973
1409.17	71.1184
1410.12	70.7541
1411.08	70.3755
1412.03	70.0195
1412.99	69.6983
1413.94	69.4603
1414.9	69.1456
1415.85	69.0745
1416.8	68.8779
1417.76	68.7255
1418.71	68.5251
1419.66	68.38
1420.62	68.1909
1421.57	68.0431
1422.52	67.8455
1423.47	67.6098
1424.42	67.2403
1425.37	67.3005
1426.32	67.3611
1427.27	67.4963
1428.22	67.6202
1429.17	67.8095
1430.12	67.9951
1431.07	68.2117
1432.02	68.5327
1432.97	68.9485
1433.92	69.1036
1434.87	69.1282
1435.82	68.8907
1436.76	68.6223
1437.71	68.4324
1438.66	68.1773
1439.61	67.9441
1440.55	67.6966
1441.5	67.4518
1442.45	67.2048
1443.39	66.9885
1444.34	66.841
1445.28	66.757
1446.23	66.941
1447.17	67.1677
1448.12	67.3899
1449.06	67.6618
1450.01	67.8999
1450.95	68.3244
1451.89	68.5413
1452.84	68.7086
1453.78	68.835
1454.72	68.9401
1455.67	68.6543
1456.61	68.497
1457.55	68.2746
1458.49	68.0656
1459.43	67.8326
1460.37	67.6216
1461.32	67.3699
1462.26	67.1202
1463.2	66.8522
1464.14	66.5316
1465.08	66.2332
1466.02	65.8203
1466.96	65.3692
1467.89	64.9326
1468.83	64.532
1469.77	64.0502
1470.71	64.0821
1471.65	65.3147
1472.59	65.5523
1473.52	65.5193
1474.46	64.9855
1475.4	63.9569
1476.33	61.5668
1477.27	61.7506
1478.21	62.4438
1479.14	63.0486
1480.08	63.6021
1481.01	64.0355
1481.95	64.3508
1482.88	64.6495
1483.82	64.8819
1484.75	65.0686
1485.69	65.182
1486.62	65.2584
1487.56	65.3433
1488.49	65.3069
1489.42	65.2843
1490.35	65.099
1491.29	64.865
1492.22	64.5139
1493.15	64.1369
1494.08	63.5505
1495.01	62.894
1495.94	62.2317
1496.88	61.3905
1497.81	60.9913
1498.74	60.6515
1499.67	60.9772
1500.6	61.0765
1501.53	61.2161
1502.46	61.4126
1503.39	61.5822
1504.31	61.7444
1505.24	61.9731
1506.17	62.1883
1507.1	62.495
1508.03	62.735
1508.95	63.0413
1509.88	63.329
1510.81	63.5327
1511.74	63.802
1512.66	64.1354
1513.59	64.6132
1514.51	65.2655
1515.44	66.0522
1516.36	67.2787
1517.29	68.6663
1518.21	70.0748
1519.14	71.4113
1520.06	72.6023
1520.99	73.6533
1521.91	74.4704
1522.84	75.0606
1523.76	75.3172
1524.68	75.4201
1525.6	75.1647
1526.53	74.7564
1527.45	74.0886
1528.37	72.9164
1529.29	71.7076
1530.21	70.4771
1531.14	69.2703
1532.06	68.2012
1532.98	67.3786
1533.9	66.5283
1534.82	65.7564
1535.74	65.0294
1536.66	64.4
1537.58	63.7208
1538.5	63.0396
1539.41	62.4324
1540.33	61.9078
1541.25	61.4259
1542.17	61.1202
1543.09	60.7197
1544.01	60.5711
1544.92	60.4716
1545.84	60.3896
1546.76	60.3193
1547.67	60.273
1548.59	60.2165
1549.51	60.0979
1550.42	59.9412
1551.34	59.3502
1552.25	58.8695
1553.17	58.3251
1554.08	57.6422
1555	56.8874
1555.91	56.0217
1556.82	55.0492
1557.74	54.0901
1558.65	53.1871
1559.56	52.3236
1560.48	51.5262
1561.39	50.7984
1562.3	50.1583
1563.21	49.7679
1564.13	49.542
1565.04	49.4838
1565.95	49.4747
1566.86	49.5957
1567.77	49.7823
1568.68	50.0314
1569.59	50.5152
1570.5	50.8924
1571.41	51.1534
1572.32	51.4106
1573.23	51.5825
1574.14	51.4521
1575.05	51.0934
1575.96	50.7873
1576.86	50.2975
1577.77	49.7744
1578.68	49.4041
1579.59	48.9994
1580.49	48.5874
1581.4	48.1803
1582.31	47.8062
1583.21	47.6732
1584.12	47.5323
1585.03	47.3843
1585.93	47.2843
1586.84	47.3468
1587.74	47.2131
1588.65	47.1795
1589.55	47.1901
1590.46	47.282
1591.36	47.4138
1592.26	47.6199
1593.17	47.8688
1594.07	48.1781
1594.97	48.5435
1595.88	48.865
1596.78	49.1191
1597.68	49.2468
1598.58	49.2999
1599.48	49.2003
1600.39	48.9977
1601.29	48.7196
1602.19	48.1214
1603.09	47.2811
1603.99	46.3099
1604.89	45.3248
1605.79	44.3473
1606.69	43.6193
1607.59	42.9439
1608.49	42.5193
1609.39	42.3177
1610.28	42.2298
1611.18	42.4171
1612.08	42.661
1612.98	43.0012
1613.88	43.3236
1614.77	43.6582
1615.67	43.809
1616.57	43.8419
1617.46	43.7693
1618.36	43.5818
1619.26	43.1651
1620.15	42.5889
1621.05	41.9585
1621.94	41.3137
1622.84	40.6699
1623.73	40.0676
1624.63	39.4983
1625.52	39.0554
1626.41	38.737
1627.31	38.3956
1628.2	38.0739
1629.09	37.9214
1629.99	37.8592
1630.88	37.8626
1631.77	37.8685
1632.65	38.1782
1633.58	38.593
1634.51	39.0545
1635.43	39.5087
1636.36	39.9774
1637.29	40.4418
1638.22	40.8545
1639.15	41.2193
1640.07	41.4299
1641	41.4229
1641.93	41.4097
1642.85	41.3894
1643.78	41.1984
1644.7	40.9144
1645.63	40.5169
1646.55	40.0372
1647.48	39.4871
1648.41	38.8785
1649.33	38.1763
1650.25	37.4309
1651.18	36.5051
1652.1	35.8362
1653.03	37.4225
1653.95	38.4497
1654.87	39.077
1655.8	39.2584
1656.72	38.9681
1657.64	38.256
1658.56	36.9008
1659.49	37.4695
1660.41	37.5869
1661.33	35.1932
1662.25	42.3668
1663.17	43.861
1664.1	42.8588
1665.02	44.9379
1665.94	43.9412
1666.86	43.021
1667.78	44.8386
1668.7	44.2792
1669.62	43.2826
1670.54	42.3094
1671.46	41.4653
1672.38	40.7821
1673.29	40.2489
1674.21	39.8136
1675.13	39.535
1676.05	39.3594
1676.97	39.3255
1677.89	39.3813
1678.8	39.6203
1679.72	39.9544
1680.64	40.4226
1681.55	40.9778
1682.47	41.5247
1683.39	42.0263
1684.3	40.8092
1685.22	38.8986
1686.14	37.1968
1687.05	36.4409
1687.97	36.8527
1688.88	38.3372
1689.8	38.5711
1690.71	38.4535
1691.63	39.4031
1692.54	40.0733
1693.45	40.3839
1694.37	40.2759
1695.28	40.0522
1696.19	39.8868
1697.11	39.7403
1698.02	39.5848
1698.93	39.3737
1699.84	38.689
1700.76	37.8365
1701.67	37.6904
1702.58	37.2476
1703.49	36.7756
1704.4	36.2919
1705.31	35.894
1706.22	35.6603
1707.14	35.6545
1708.05	35.189
1708.96	34.9035
1709.87	35.1376
1710.78	35.4375
1711.68	35.7868
1712.59	36.2002
1713.5	36.4942
1714.41	36.84
1715.32	37.1849
1716.23	37.4479
1717.14	37.6929
1718.04	37.8892
1718.95	38.0635
1719.86	38.186
1720.77	38.2655
1721.67	38.3304
1722.58	38.2511
1723.49	38.1733
1724.39	37.8896
1725.3	37.5155
1726.21	36.9507
1727.11	36.3274
1728.02	35.8649
1728.92	35.8696
1729.83	36.2642
1730.73	36.4505
1731.64	36.6441
1732.54	36.7927
1733.44	36.9254
1734.35	37.0207
1735.25	36.7235
1736.15	36.6084
1737.06	36.8754
1737.96	37.3105
1738.86	37.3098
1739.77	37.3009
1740.67	37.2268
1741.57	37.1189
1742.47	36.9555
1743.37	36.7387
1744.27	36.4757
1745.18	36.1491
1746.08	35.7817
1746.98	35.368
1747.88	34.8803
1748.78	34.3118
1749.68	33.7268
1750.58	32.9965
1751.48	32.4268
1752.38	31.9564
1753.28	32.8309
1754.17	33.5841
1755.07	34.5331
1755.97	35.8049
1756.87	36.9699
1757.77	37.8935
1758.66	38.3038
1759.56	38.7391
1760.46	39.0173
1761.36	38.7503
1762.25	38.0512
1763.15	37.2952
1764.05	37.2307
1764.94	37.2501
1765.84	37.3345
1766.73	37.4748
1767.63	37.5717
1768.53	37.6687
1769.42	37.721
1770.32	37.7059
1771.21	37.5921
1772.1	37.2504
1773	36.8063
1773.89	36.7821
1774.79	37.0406
1775.68	37.3032
1776.57	37.0891
1777.47	36.8278
1778.36	36.5621
1779.25	36.3144
1780.14	36.0902
1781.04	35.8996
1781.93	35.7815
1782.82	35.6468
1783.71	35.5175
1784.6	35.2696
1785.49	34.9261
1786.38	34.5596
1787.27	34.2861
1788.17	34.049
1789.06	33.8937
1789.95	33.9014
1790.84	33.9705
1791.72	34.3512
1792.61	35.067
1793.5	35.9406
1794.39	37.0136
1795.28	38.0846
1796.17	37.8993
1797.06	37.4374
1797.94	36.8089
1798.83	35.9296
1799.72	34.9214
