Acq. time (s)=	15
Accumulations=	2
Range (cm-¹)=	600...1800
Windows=	2
Autofocus=	Off
AutoExposure=	Off
Spike filter=	Multiple accum.
Delay time (s)=	1
Binning=	1
Readout mode=	Signal
DeNoise=	Standard
ICS correction=	Off
Dark correction=	Off
Inst. Process=	Off
Instrument=	XploRA
Detector=	Syncerity
Objective=	x20LWD
Grating=	1200 gr/mm
Filter=	25%
Laser (nm)=	785 
Slit (µm)=	100 
Hole (µm)=	300 
Laser pol=	None
Raman pol=	None
Output=	Camera
StageXY=	Marzhauser
StageZ=	
X (µm)=	-4178.9
Y (µm)=	7301.5
Project=	
Sample=	
Site=	
Title=	CLs P3
Remark=	
Date=	15.10.2021 17:22
Operator=	
Power=	
Acquired=	15.10.2021 17:22:44
601.097	264.071
602.266	267.971
603.435	271.127
604.603	273.861
605.771	276.102
606.939	277.905
608.106	279.54
609.273	281.213
610.44	283.916
611.606	285.927
612.772	286.672
613.938	287.088
615.104	287.439
616.268	287.721
617.433	287.966
618.598	288.19
619.763	288.452
620.926	288.663
622.091	288.911
623.254	289.102
624.417	289.237
625.58	289.332
626.742	289.358
627.906	289.364
629.068	289.299
630.229	289.198
631.391	289.027
632.551	288.786
633.712	288.545
634.873	288.27
636.033	287.944
637.193	287.593
638.352	287.155
639.512	286.711
640.671	286.12
641.83	285.491
642.988	284.738
644.147	284.042
645.305	283.44
646.462	283.067
647.62	284.845
648.777	286.782
649.934	288.969
651.09	287.529
652.247	285.839
653.402	284.019
654.558	282.161
655.713	280.458
656.868	278.746
658.023	276.971
659.177	275.347
660.331	276.872
661.485	277.615
662.639	278.165
663.792	278.369
664.945	275.025
666.098	274.986
667.25	275.206
668.402	276.265
669.554	277.721
670.705	279.811
671.857	281.676
673.007	282.548
674.158	283.101
675.309	283.194
676.459	282.885
677.609	282.395
678.758	281.865
679.907	279.828
681.056	277.803
682.205	275.665
683.353	273.682
684.501	272.311
685.649	271.632
686.796	272.797
687.943	272.337
689.09	272.506
690.236	272.981
691.383	273.748
692.529	274.538
693.675	275.16
694.82	275.258
695.965	273.816
697.11	273.596
698.254	273.416
699.398	273.131
700.542	272.433
701.686	271.61
702.829	270.677
703.973	269.624
705.116	268.592
706.258	267.612
707.4	266.805
708.542	265.839
709.684	264.871
710.825	264.062
711.966	264.485
713.107	263.857
714.247	262.291
715.387	262.905
716.527	263.348
717.667	266.202
718.806	266.733
719.945	267.969
721.084	267.991
722.223	266.538
723.361	262.075
724.498	261.665
725.636	261.314
726.773	259.389
727.91	259.975
729.047	260.998
730.183	262.341
731.32	263.907
732.455	265.543
733.591	267.471
734.726	271.638
735.861	273.762
736.996	275.551
738.13	276.792
739.264	277.468
740.398	277.499
741.532	276.97
742.665	275.736
743.797	273.758
744.93	270.835
746.063	268.595
747.195	265.417
748.326	262.635
749.458	260.054
750.589	258.122
751.72	256.963
752.851	257.484
753.981	255.586
755.111	253.872
756.241	252.39
757.371	251.248
758.499	251.125
759.628	250.178
760.757	249.311
761.885	248.815
763.014	248.924
764.141	249.111
765.268	249.259
766.395	249.341
767.523	249.204
768.649	249.111
769.775	248.504
770.901	247.847
772.027	247.158
773.153	246.537
774.277	245.966
775.403	245.602
776.527	245.501
777.651	245.328
778.776	245.159
779.899	245.006
781.023	244.874
782.146	244.691
783.269	244.462
784.39	244.205
785.513	243.91
786.635	243.632
787.757	243.053
788.878	242.323
789.999	241.692
791.12	241.062
792.24	240.523
793.36	240.037
794.48	239.571
795.6	239.459
796.72	239.207
797.839	238.985
798.957	238.797
800.076	238.598
801.194	238.234
802.313	237.648
803.43	235.254
804.547	232.48
805.664	231.33
806.781	230.804
807.898	230.656
809.014	229.487
810.13	228.21
811.245	226.588
812.361	225.38
813.476	227.693
814.591	236.767
815.705	232.335
816.819	232
817.933	231.65
819.047	231.093
820.16	230.562
821.273	229.899
822.386	229.205
823.498	228.649
824.611	228.216
825.723	228.095
826.835	228.609
827.946	229.707
829.057	229.577
830.167	229.62
831.278	229.884
832.388	230.061
833.498	230.102
834.608	230.114
835.717	229.688
836.826	229.027
837.935	228.473
839.043	228.142
840.152	227.73
841.26	227.188
842.367	226.557
843.474	225.877
844.582	225.185
845.688	224.492
846.794	223.716
847.901	223.04
849.006	222.349
850.112	221.754
851.217	221.216
852.322	220.743
853.428	220.505
854.532	220.188
855.636	220.013
856.74	219.832
857.843	219.699
858.947	219.507
860.05	219.346
861.153	219.209
862.255	219.345
863.358	222.391
864.459	222.273
865.561	220.836
866.662	218.895
867.763	216.753
868.864	214.715
869.964	212.933
871.065	211.2
872.165	209.777
873.264	209.756
874.363	209.565
875.463	209.039
876.561	208.221
877.66	206.857
878.758	205.374
879.856	203.647
880.954	202.771
882.051	202.248
883.148	201.918
884.244	201.836
885.341	201.601
886.437	201.356
887.533	201.175
888.629	201.123
889.724	201.228
890.819	201.497
891.914	201.903
893.009	202.378
894.102	203.019
895.197	203.991
896.29	205.031
897.384	206.122
898.477	207.193
899.569	208.291
900.662	209.298
901.754	210.016
902.846	210.411
903.938	210.776
905.029	210.936
906.12	210.629
907.211	209.873
908.301	208.131
909.391	206.23
910.481	204.546
911.571	202.256
912.66	200.211
913.749	199.167
914.838	198.743
915.927	199.284
917.015	200.057
918.103	200.714
919.191	201.036
920.279	201.402
921.365	201.643
922.452	201.984
923.539	202.143
924.625	201.941
925.711	201.197
926.796	199.873
927.882	198.39
928.967	196.867
930.052	195.446
931.136	194.368
932.221	193.22
933.305	192.117
934.389	190.993
935.472	189.937
936.555	189.007
937.638	188.195
938.721	187.516
939.802	187.006
940.885	186.594
941.966	186.296
943.048	186.106
944.129	185.974
945.209	185.929
946.29	186.024
947.371	186.133
948.451	186.276
949.531	186.405
950.61	186.545
951.689	186.414
952.768	186.377
953.847	186.278
954.925	186.166
956.003	185.468
957.081	184.558
958.158	183.723
959.236	182.869
960.312	182.085
961.389	181.307
962.465	180.591
963.542	180.305
964.617	179.924
965.693	179.603
966.768	179.349
967.843	179.163
968.918	179.007
969.991	178.929
971.066	178.928
972.139	179.038
973.213	179.22
974.286	179.301
975.359	179.438
976.432	179.655
977.504	179.908
978.576	180.286
979.648	180.855
980.72	181.601
981.791	183.187
982.862	184.601
983.933	185.937
985.004	186.911
986.074	187.712
987.143	188.353
988.213	188.833
989.282	189.13
990.351	189.271
991.42	189.264
992.489	189.141
993.557	188.872
994.624	188.372
995.692	187.533
996.76	186.566
997.827	185.527
998.893	184.41
999.96	183.21
1001.03	181.919
1002.09	180.695
1003.16	179.508
1004.22	178.83
1005.29	178.112
1006.35	177.429
1007.42	176.795
1008.48	176.129
1009.54	175.51
1010.61	174.88
1011.67	174.223
1012.74	173.564
1013.8	172.854
1014.86	172.094
1015.92	171.03
1016.99	170.043
1018.05	169.063
1019.11	167.667
1020.17	166.33
1021.23	165.106
1022.29	164.039
1023.35	163.147
1024.41	162.728
1025.47	162.695
1026.53	162.739
1027.59	162.886
1028.65	163.123
1029.71	163.389
1030.77	163.708
1031.82	163.997
1032.88	164.266
1033.94	164.595
1035	164.832
1036.05	165.013
1037.11	165.064
1038.17	165.091
1039.22	165.205
1040.28	165.255
1041.33	165.331
1042.39	165.381
1043.44	165.383
1044.5	165.275
1045.55	165.133
1046.61	164.849
1047.66	164.535
1048.71	163.981
1049.77	163.057
1050.82	162.209
1051.87	161.194
1052.93	160.085
1053.98	159.037
1055.03	158.061
1056.08	157.429
1057.13	157.291
1058.18	157.425
1059.23	158.023
1060.29	159.129
1061.34	160.194
1062.39	161.17
1063.44	161.844
1064.48	162.26
1065.53	162.382
1066.58	162.319
1067.63	161.929
1068.68	161.27
1069.73	160.371
1070.78	159.478
1071.82	158.425
1072.87	157.296
1073.92	156.246
1074.96	155.137
1076.01	154.114
1077.06	153.133
1078.1	152.256
1079.15	151.478
1080.19	150.834
1081.24	150.223
1082.28	149.748
1083.33	149.402
1084.37	149.116
1085.41	149.067
1086.46	149.13
1087.5	149.345
1088.54	149.803
1089.59	150.259
1090.63	151.208
1091.67	152.258
1092.71	153.201
1093.76	154.118
1094.8	154.934
1095.84	154.853
1096.88	154.707
1097.92	154.347
1098.96	153.566
1100	152.602
1101.04	151.207
1102.08	149.576
1103.12	147.81
1104.16	146.111
1105.19	145.456
1106.23	149.22
1107.27	149.09
1108.31	148.835
1109.35	148.531
1110.38	148.276
1111.42	148.035
1112.46	148.055
1113.49	148.095
1114.53	148.047
1115.56	147.938
1116.6	147.695
1117.64	147.256
1118.67	146.613
1119.71	145.76
1120.74	144.599
1121.77	143.487
1122.81	142.422
1123.84	141.525
1124.87	141.617
1125.91	141.896
1126.94	142.438
1127.97	143.036
1129	143.579
1130.04	143.996
1131.07	144.625
1132.1	145.495
1133.13	147.002
1134.16	148.741
1135.19	149.78
1136.22	150.514
1137.25	151.182
1138.28	151.735
1139.31	152.199
1140.34	152.628
1141.37	153.063
1142.4	153.439
1143.43	153.874
1144.45	154.233
1145.48	154.747
1146.51	155.176
1147.54	155.695
1148.56	156.146
1149.59	156.621
1150.62	157.019
1151.64	157.437
1152.67	157.75
1153.69	157.988
1154.72	157.462
1155.74	156.455
1156.77	155.291
1157.79	153.427
1158.82	151.474
1159.84	149.501
1160.86	147.82
1161.89	146.402
1162.91	145.305
1163.93	144.445
1164.96	143.768
1165.98	143.253
1167	143.005
1168.02	142.901
1169.04	143.048
1170.06	143.449
1171.09	143.937
1172.11	144.259
1173.13	143.123
1174.15	142.616
1175.17	141.05
1176.19	140.994
1177.2	140.983
1178.22	140.916
1179.24	140.876
1180.26	140.867
1181.28	140.788
1182.3	140.646
1183.31	140.449
1184.33	140.121
1185.35	139.79
1186.37	139.39
1187.38	138.929
1188.4	138.421
1189.41	137.825
1190.43	137.025
1191.45	136.185
1192.46	135.329
1193.47	134.365
1194.49	133.845
1195.5	133.905
1196.52	133.907
1197.53	133.951
1198.55	134.046
1199.56	134.138
1200.57	134.138
1201.58	134.245
1202.6	134.272
1203.61	134.443
1204.62	134.631
1205.63	134.894
1206.64	135.17
1207.65	135.572
1208.66	135.976
1209.67	136.321
1210.68	136.64
1211.69	136.938
1212.7	136.687
1213.71	135.896
1214.72	135.254
1215.73	134.611
1216.74	133.93
1217.75	133.469
1218.76	132.943
1219.76	132.392
1220.77	131.769
1221.78	131.215
1222.79	130.577
1223.79	129.994
1224.8	129.366
1225.8	128.754
1226.81	128.13
1227.82	127.471
1228.82	126.839
1229.83	126.086
1230.83	125.347
1231.83	124.45
1232.84	123.36
1233.84	122.017
1234.85	120.958
1235.85	120.051
1236.85	119.218
1237.86	118.903
1238.86	118.656
1239.86	118.584
1240.86	118.759
1241.86	119.048
1242.86	119.394
1243.87	119.808
1244.87	120.241
1245.87	120.667
1246.87	121.092
1247.87	121.61
1248.87	121.723
1249.87	121.667
1250.87	121.608
1251.87	121.508
1252.86	121.371
1253.86	121.287
1254.86	121.155
1255.86	121.088
1256.86	121.024
1257.85	121.064
1258.85	121.293
1259.85	121.706
1260.84	121.996
1261.84	122.269
1262.84	122.38
1263.83	122.462
1264.83	122.415
1265.82	121.534
1266.82	120.683
1267.81	119.874
1268.81	119.1
1269.8	118.42
1270.79	117.837
1271.79	117.45
1272.78	117.568
1273.77	117.718
1274.77	118.045
1275.76	118.911
1276.75	119.901
1277.74	120.939
1278.73	121.936
1279.73	122.761
1280.72	122.608
1281.71	122.605
1282.7	122.394
1283.69	121.926
1284.68	121.292
1285.67	120.588
1286.66	119.86
1287.65	120.062
1288.64	119.506
1289.62	118.332
1290.61	117.032
1291.6	115.741
1292.59	114.365
1293.58	113.013
1294.56	111.336
1295.55	109.909
1296.54	108.848
1297.52	108.473
1298.51	108.363
1299.5	108.615
1300.48	109.262
1301.47	110.342
1302.45	111.983
1303.44	112.861
1304.42	113.53
1305.41	113.991
1306.39	114.386
1307.37	114.549
1308.36	114.617
1309.34	114.61
1310.32	114.286
1311.31	113.893
1312.29	113.534
1313.27	113.293
1314.25	113.215
1315.23	113.863
1316.21	114.51
1317.2	115.265
1318.18	116.214
1319.16	117.256
1320.14	118.277
1321.12	119.152
1322.1	119.774
1323.08	120.42
1324.06	121
1325.03	121.46
1326.01	121.23
1326.99	120.642
1327.97	119.964
1328.95	119.157
1329.92	118.275
1330.9	117.386
1331.88	116.518
1332.86	115.527
1333.83	114.429
1334.81	113.276
1335.78	112.111
1336.76	111.021
1337.74	110.035
1338.71	109.344
1339.69	108.965
1340.66	108.956
1341.63	108.799
1342.61	108.552
1343.58	107.928
1344.56	107.062
1345.53	106.364
1346.5	106.086
1347.47	106.001
1348.45	106.11
1349.42	106.323
1350.39	106.564
1351.36	107.123
1352.33	108.094
1353.31	109.171
1354.28	110.181
1355.25	110.663
1356.22	111.056
1357.19	111.357
1358.16	111.492
1359.13	111.39
1360.09	111.02
1361.06	110.25
1362.03	108.972
1363	107.324
1363.97	105.651
1364.94	104.076
1365.9	102.996
1366.87	102.111
1367.84	101.938
1368.81	101.844
1369.77	101.809
1370.74	101.787
1371.7	101.813
1372.67	101.737
1373.64	101.659
1374.6	101.557
1375.57	101.443
1376.53	101.352
1377.49	101.233
1378.46	101.144
1379.42	101.043
1380.39	100.968
1381.35	100.923
1382.31	100.854
1383.28	100.824
1384.24	100.798
1385.2	100.766
1386.16	100.759
1387.12	100.745
1388.09	100.754
1389.05	100.773
1390.01	100.788
1390.97	100.834
1391.93	100.819
1392.89	100.844
1393.85	100.703
1394.81	100.543
1395.77	99.9713
1396.73	99.8827
1397.68	101.128
1398.64	102.198
1399.6	102.658
1400.56	102.052
1401.52	100.76
1402.47	98.8761
1403.43	97.1141
1404.39	95.4456
1405.35	94.3015
1406.3	93.7645
1407.26	93.3767
1408.21	94.6799
1409.17	95.3329
1410.12	95.8243
1411.08	95.2684
1412.03	94.2169
1412.99	93.1406
1413.94	92.2362
1414.9	91.5105
1415.85	90.8937
1416.8	90.3731
1417.76	90.4421
1418.71	90.6695
1419.66	91.0021
1420.62	91.3695
1421.57	91.7787
1422.52	92.2434
1423.47	92.6681
1424.42	92.8848
1425.37	93.3345
1426.32	93.7639
1427.27	94.2617
1428.22	94.6886
1429.17	95.359
1430.12	96.0421
1431.07	96.697
1432.02	97.3174
1432.97	97.9083
1433.92	98.4549
1434.87	98.9102
1435.82	99.2393
1436.76	99.3622
1437.71	98.9776
1438.66	98.4373
1439.61	97.7633
1440.55	97.0316
1441.5	96.1981
1442.45	95.351
1443.39	94.3413
1444.34	93.3601
1445.28	92.6338
1446.23	91.9485
1447.17	91.4714
1448.12	91.0989
1449.06	91.1371
1450.01	91.5287
1450.95	92.2559
1451.89	92.8453
1452.84	93.5076
1453.78	93.973
1454.72	93.8445
1455.67	93.8348
1456.61	93.6822
1457.55	93.5291
1458.49	93.5663
1459.43	93.7764
1460.37	93.8035
1461.32	93.6173
1462.26	93.0364
1463.2	92.1046
1464.14	91.1227
1465.08	90.0383
1466.02	89.3328
1466.96	88.9811
1467.89	88.7075
1468.83	88.5217
1469.77	88.375
1470.71	88.2831
1471.65	88.1042
1472.59	87.9809
1473.52	87.9284
1474.46	88.0401
1475.4	88.4084
1476.33	88.9069
1477.27	90.6803
1478.21	90.3218
1479.14	89.8431
1480.08	89.2518
1481.01	88.6311
1481.95	88.2876
1482.88	87.9885
1483.82	88.002
1484.75	88.0686
1485.69	88.2489
1486.62	88.4341
1487.56	88.3493
1488.49	88.0843
1489.42	86.9916
1490.35	86.3703
1491.29	85.7728
1492.22	85.4453
1493.15	85.2047
1494.08	85.0791
1495.01	85.0059
1495.94	85.0067
1496.88	85.0836
1497.81	85.1817
1498.74	85.567
1499.67	85.7539
1500.6	85.8177
1501.53	85.8901
1502.46	85.9547
1503.39	86.0364
1504.31	86.1705
1505.24	86.3593
1506.17	86.6319
1507.1	86.9692
1508.03	87.38
1508.95	87.8838
1509.88	88.4883
1510.81	89.3617
1511.74	90.211
1512.66	91.2843
1513.59	92.1266
1514.51	93.7637
1515.44	95.3965
1516.36	97.0626
1517.29	98.6589
1518.21	100.172
1519.14	101.574
1520.06	102.176
1520.99	102.853
1521.91	103.347
1522.84	103.565
1523.76	103.633
1524.68	103.454
1525.6	103.057
1526.53	102.318
1527.45	101.28
1528.37	100.121
1529.29	98.7168
1530.21	97.1822
1531.14	95.5241
1532.06	93.7459
1532.98	91.8962
1533.9	90.3982
1534.82	88.6311
1535.74	87.1261
1536.66	85.5916
1537.58	83.9672
1538.5	82.4437
1539.41	81.4526
1540.33	81.518
1541.25	82.185
1542.17	82.9065
1543.09	83.5965
1544.01	84.3579
1544.92	84.8426
1545.84	85.163
1546.76	85.3511
1547.67	85.52
1548.59	85.4709
1549.51	85.3682
1550.42	85.1273
1551.34	84.6981
1552.25	84.2874
1553.17	83.8264
1554.08	83.3568
1555	82.8897
1555.91	82.4036
1556.82	81.8839
1557.74	81.4213
1558.65	80.8243
1559.56	80.3007
1560.48	79.6044
1561.39	78.8271
1562.3	78.1449
1563.21	77.5343
1564.13	77.1158
1565.04	76.836
1565.95	76.7252
1566.86	76.7276
1567.77	76.9967
1568.68	76.8825
1569.59	76.7353
1570.5	76.6702
1571.41	76.353
1572.32	75.5625
1573.23	75.0413
1574.14	75.4601
1575.05	76.1109
1575.96	76.445
1576.86	76.2696
1577.77	75.9291
1578.68	75.5985
1579.59	75.3185
1580.49	75.0531
1581.4	74.933
1582.31	74.7183
1583.21	74.5728
1584.12	74.4047
1585.03	74.2159
1585.93	74.0688
1586.84	73.942
1587.74	73.8291
1588.65	73.9407
1589.55	74.0313
1590.46	74.2508
1591.36	74.4232
1592.26	74.8674
1593.17	75.2037
1594.07	75.664
1594.97	76.074
1595.88	76.3193
1596.78	76.8584
1597.68	77.3485
1598.58	77.769
1599.48	78.1584
1600.39	78.2656
1601.29	78.1954
1602.19	78.1232
1603.09	77.7322
1603.99	77.0641
1604.89	76.316
1605.79	75.7098
1606.69	75.0826
1607.59	74.9149
1608.49	74.6905
1609.39	74.4445
1610.28	73.9911
1611.18	74.0009
1612.08	74.2148
1612.98	74.642
1613.88	74.9474
1614.77	75.5365
1615.67	76.4027
1616.57	77.3151
1617.46	77.9576
1618.36	78.7064
1619.26	79.3444
1620.15	79.5492
1621.05	79.5055
1621.94	79.4798
1622.84	79.122
1623.73	78.3684
1624.63	77.8073
1625.52	76.2243
1626.41	72.1098
1627.31	68.4662
1628.2	65.5753
1629.09	67.1892
1629.99	72.1385
1630.88	74.2436
1631.77	72.5808
1632.65	73.5844
1633.58	73.8238
1634.51	74.0228
1635.43	74.5268
1636.36	74.9408
1637.29	75.3948
1638.22	75.7042
1639.15	75.6488
1640.07	74.8753
1641	74.3538
1641.93	73.4996
1642.85	72.7883
1643.78	72.4385
1644.7	72.1876
1645.63	71.7361
1646.55	71.4297
1647.48	71.9039
1648.41	72.2519
1649.33	72.8712
1650.25	73.1591
1651.18	73.8434
1652.1	74.2013
1653.03	74.3174
1653.95	74.6719
1654.87	74.6306
1655.8	74.7395
1656.72	74.7923
1657.64	74.6213
1658.56	74.6556
1659.49	74.3561
1660.41	74.0253
1661.33	73.9385
1662.25	74.1644
1663.17	74.5277
1664.1	75.2575
1665.02	75.1432
1665.94	75.0681
1666.86	74.3789
1667.78	73.9271
1668.7	73.3803
1669.62	73.1938
1670.54	72.5667
1671.46	71.9685
1672.38	71.3987
1673.29	71.3941
1674.21	71.5532
1675.13	72.0341
1676.05	72.3822
1676.97	72.8214
1677.89	72.9561
1678.8	73.1387
1679.72	72.5821
1680.64	71.6908
1681.55	71.3138
1682.47	71.4159
1683.39	71.5782
1684.3	71.8764
1685.22	72.0679
1686.14	72.1609
1687.05	72.1006
1687.97	72.7886
1688.88	72.5174
1689.8	72.1603
1690.71	71.325
1691.63	70.6294
1692.54	69.7143
1693.45	68.4908
1694.37	67.4964
1695.28	67.0811
1696.19	66.5599
1697.11	66.1981
1698.02	65.6729
1698.93	65.4408
1699.84	65.6171
1700.76	65.8196
1701.67	66.5313
1702.58	67.042
1703.49	67.3888
1704.4	67.5779
1705.31	67.585
1706.22	67.572
1707.14	67.3343
1708.05	66.7511
1708.96	66.0193
1709.87	65.5205
1710.78	64.826
1711.68	64.277
1712.59	63.998
1713.5	63.933
1714.41	63.6613
1715.32	63.2728
1716.23	62.9299
1717.14	62.9227
1718.04	61.7485
1718.95	62.0418
1719.86	62.7395
1720.77	63.3506
1721.67	64.1147
1722.58	65.1187
1723.49	65.5144
1724.39	65.6889
1725.3	65.2302
1726.21	64.3591
1727.11	63.9613
1728.02	63.1031
1728.92	62.2995
1729.83	60.9887
1730.73	60.6025
1731.64	60.9705
1732.54	60.9407
1733.44	60.9881
1734.35	61.1918
1735.25	61.2971
1736.15	61.5934
1737.06	61.6932
1737.96	61.7357
1738.86	62.3456
1739.77	63.0747
1740.67	63.7938
1741.57	64.765
1742.47	65.2374
1743.37	65.5068
1744.27	65.9787
1745.18	65.9568
1746.08	65.7082
1746.98	65.3973
1747.88	64.8399
1748.78	63.9908
1749.68	62.6758
1750.58	61.8686
1751.48	61.4159
1752.38	60.9121
1753.28	60.2339
1754.17	59.7011
1755.07	59.3568
1755.97	59.4414
1756.87	59.6791
1757.77	60.0628
1758.66	60.339
1759.56	60.3464
1760.46	60.1613
1761.36	60.4581
1762.25	60.6123
1763.15	60.3441
1764.05	60.1649
1764.94	60.0888
1765.84	59.9398
1766.73	59.5617
1767.63	59.4054
1768.53	59.3898
1769.42	59.4866
1770.32	59.2047
1771.21	59.1483
1772.1	59.3381
1773	59.4761
1773.89	60.0333
1774.79	60.2968
1775.68	60.6685
1776.57	59.5606
1777.47	58.7593
1778.36	58.2504
1779.25	57.7108
1780.14	57.489
1781.04	56.8826
1781.93	56.6828
1782.82	56.9058
1783.71	56.8488
1784.6	56.6587
1785.49	56.5163
1786.38	56.4219
1787.27	57.3342
1788.17	58.1215
1789.06	58.3266
1789.95	58.5368
1790.84	58.7522
1791.72	58.9727
1792.61	59.1664
1793.5	59.1702
1794.39	58.6744
1795.28	58.2154
1796.17	57.7097
1797.06	57.2335
1797.94	57.3993
1798.83	58.3321
1799.72	58.6514
