Acq. time (s)=	15
Accumulations=	2
Range (cm-¹)=	600...1800
Windows=	2
Autofocus=	Off
AutoExposure=	Off
Spike filter=	Multiple accum.
Delay time (s)=	1
Binning=	1
Readout mode=	Signal
DeNoise=	Standard
ICS correction=	Off
Dark correction=	Off
Inst. Process=	Off
Instrument=	XploRA
Detector=	Syncerity
Objective=	x20LWD
Grating=	1200 gr/mm
Filter=	25%
Laser (nm)=	785 
Slit (µm)=	100 
Hole (µm)=	300 
Laser pol=	None
Raman pol=	None
Output=	Camera
StageXY=	Marzhauser
StageZ=	
X (µm)=	-10586.4
Y (µm)=	3875.6
Project=	
Sample=	
Site=	
Title=	T1
Remark=	
Date=	27.10.2021 15:16
Operator=	
Power=	
Acquired=	27.10.2021 15:16:57
600.089	1324.68
601.257	1332.35
602.426	1339.25
603.594	1344.41
604.763	1350.43
605.93	1358.31
607.098	1364.1
608.264	1369.44
609.431	1373.99
610.598	1378.6
611.764	1382.95
612.93	1387.15
614.096	1392.12
615.261	1395.51
616.426	1397.65
617.591	1400.14
618.756	1402.1
619.92	1404.35
621.084	1406.24
622.247	1407.53
623.411	1407.97
624.574	1406.98
625.736	1406.66
626.899	1405.65
628.061	1405.18
629.223	1404.16
630.385	1402.94
631.546	1400.72
632.706	1397.98
633.867	1394.77
635.028	1392.66
636.188	1391.5
637.348	1389.71
638.507	1388.02
639.667	1387.58
640.826	1387.04
641.984	1387.58
643.142	1388.49
644.3	1389.01
645.458	1389.14
646.616	1389.09
647.773	1390.46
648.93	1391.93
650.086	1393.71
651.243	1392.67
652.399	1390.13
653.555	1388.13
654.71	1385.82
655.865	1380.67
657.02	1377.44
658.174	1373.82
659.329	1372.08
660.483	1372.21
661.637	1373.41
662.79	1376.63
663.944	1378.56
665.096	1379.49
666.249	1380.47
667.401	1381.83
668.552	1383.71
669.705	1386.68
670.856	1387.66
672.007	1387.98
673.158	1387.21
674.308	1385.14
675.458	1384.97
676.609	1383.89
677.757	1383.83
678.907	1384.96
680.057	1386.08
681.205	1386.21
682.353	1386.14
683.502	1386.5
684.649	1385.75
685.797	1385.46
686.944	1383.42
688.091	1382.22
689.238	1380.23
690.385	1376.96
691.53	1374.47
692.676	1372.04
693.822	1370.9
694.967	1369.8
696.112	1368.42
697.257	1367.3
698.401	1366.64
699.545	1368.14
700.689	1368.27
701.832	1366.39
702.975	1363.08
704.119	1359.74
705.261	1354.88
706.403	1349.22
707.546	1342.28
708.688	1338.46
709.829	1333.52
710.97	1330.46
712.11	1324.89
713.252	1322.03
714.392	1321.33
715.532	1320.27
716.672	1320.42
717.811	1321.61
718.95	1318.7
720.089	1315.37
721.227	1307.14
722.366	1303.14
723.504	1298.93
724.642	1308.78
725.779	1302.66
726.916	1291.58
728.053	1286.5
729.19	1282.14
730.326	1279.2
731.462	1290.5
732.597	1295.39
733.733	1299.7
734.868	1305.07
736.003	1310.4
737.137	1314.54
738.272	1317.59
739.405	1320.58
740.539	1323.26
741.672	1325.33
742.805	1326.02
743.938	1326.6
745.071	1321.82
746.203	1318.7
747.335	1318.22
748.467	1317.89
749.598	1316.58
750.728	1315.26
751.86	1312.43
752.99	1308.62
754.12	1304.06
755.25	1298.17
756.38	1290.25
757.509	1281.74
758.638	1271.45
759.767	1260.83
760.896	1249.9
762.023	1240.82
763.152	1232.16
764.279	1227.72
765.406	1221.17
766.533	1216.66
767.66	1210.92
768.786	1207.1
769.912	1204.98
771.038	1203.04
772.164	1201.65
773.289	1198.8
774.414	1196.53
775.539	1192.72
776.664	1188.48
777.787	1185.36
778.911	1180.33
780.035	1176.05
781.158	1171.13
782.281	1165.76
783.404	1160.32
784.526	1156.03
785.648	1152.73
786.77	1151.04
787.891	1150.77
789.013	1149.09
790.134	1147.74
791.254	1146.81
792.374	1144.85
793.494	1141.79
794.614	1138.46
795.734	1135.01
796.853	1129.95
797.973	1124.88
799.091	1119.68
800.21	1114.21
801.327	1108.09
802.445	1102.72
803.563	1097.87
804.68	1093.64
805.797	1090.87
806.914	1088.2
808.03	1086.25
809.146	1084.3
810.262	1082.34
811.377	1079.29
812.492	1077.29
813.608	1075.61
814.722	1075.41
815.836	1075.95
816.95	1076.78
818.064	1079.06
819.177	1079.66
820.291	1081.46
821.404	1082.65
822.517	1084.03
823.628	1085.09
824.741	1085.04
825.852	1085.08
826.964	1084.75
828.075	1084.9
829.186	1083.44
830.297	1081.17
831.407	1077.77
832.517	1074.61
833.627	1070.17
834.736	1067.05
835.846	1064.14
836.954	1061.29
838.063	1058.55
839.171	1055.93
840.279	1053.48
841.387	1050.34
842.494	1049.54
843.602	1047.85
844.709	1045.07
845.815	1041.4
846.922	1037.83
848.028	1034.05
849.134	1030.45
850.239	1026.2
851.344	1023.53
852.449	1020.79
853.554	1018.23
854.658	1016.17
855.762	1014.21
856.865	1012.42
857.969	1009.42
859.073	1006.74
860.175	1005.27
861.278	1004.11
862.38	1002.39
863.482	1000.42
864.584	998.777
865.686	995.019
866.787	990.424
867.887	986.597
868.988	982.867
870.088	980.187
871.189	977.803
872.288	974.699
873.387	972.329
874.487	968.965
875.586	967.014
876.684	964.86
877.783	964.104
878.881	963.834
879.979	963.055
881.076	962.237
882.173	962.102
883.27	961.811
884.366	961.333
885.463	960.459
886.559	959.927
887.655	959.564
888.75	958.687
889.845	957.67
890.94	956.631
892.035	956.059
893.13	953.757
894.223	951.146
895.318	949.163
896.411	946.523
897.504	944.367
898.597	941.551
899.69	938.763
900.782	935.918
901.874	932.841
902.966	931.567
904.057	932.373
905.148	932.836
906.239	934.406
907.33	935.587
908.42	937.823
909.51	941.214
910.601	944.642
911.69	948.61
912.779	952.296
913.868	955.028
914.956	955.458
916.045	954.161
917.133	952.659
918.221	950.667
919.308	945.987
920.396	941.607
921.483	936.099
922.569	931.037
923.656	923.916
924.742	916.144
925.827	910.067
926.913	905.144
927.999	901.268
929.083	898.781
930.168	895.199
931.253	890.076
932.337	886.116
933.42	880.474
934.504	875.21
935.587	870.065
936.67	865.12
937.753	861.253
938.835	857.827
939.917	854.182
940.999	851.367
942.081	848.89
943.162	848.093
944.243	847.673
945.324	846.658
946.404	845.602
947.484	845.895
948.565	846.691
949.644	846.576
950.723	846.16
951.802	846.922
952.881	846.14
953.96	844.556
955.038	844.094
956.116	842.609
957.193	840.926
958.27	838.227
959.347	834.825
960.425	831.849
961.501	827.953
962.577	825.2
963.653	823.269
964.729	821.664
965.804	820.866
966.879	820.723
967.954	821.813
969.029	824.66
970.102	826.566
971.177	828.516
972.25	831.303
973.324	834.432
974.397	835.257
975.469	836.221
976.542	839.202
977.614	841.002
978.686	844.65
979.758	850.51
980.83	853.866
981.9	856.239
982.972	857.762
984.042	858.894
985.112	859.171
986.182	857.58
987.252	855.636
988.321	852.816
989.39	847.865
990.46	845.703
991.528	844.535
992.596	842.761
993.664	841.628
994.732	836.704
995.8	832.884
996.867	830.832
997.934	829.366
999	827.913
1000.07	826.467
1001.13	824.912
1002.2	822.945
1003.26	820.661
1004.33	817.878
1005.39	814.363
1006.46	810.129
1007.52	802.409
1008.59	794.551
1009.65	786.395
1010.71	780.561
1011.78	774.958
1012.84	770.635
1013.9	765.745
1014.97	762.012
1016.03	758.268
1017.09	758.404
1018.15	755.98
1019.21	753.399
1020.27	749.572
1021.33	742.831
1022.39	738.106
1023.46	733.579
1024.51	729.112
1025.57	725.646
1026.63	721.334
1027.69	717.978
1028.75	715.569
1029.81	714.049
1030.87	712.885
1031.93	711.981
1032.98	707.559
1034.04	705.734
1035.1	704.248
1036.15	703.423
1037.21	703.566
1038.27	704.034
1039.32	704.737
1040.38	707.554
1041.44	711.154
1042.49	716.994
1043.55	719.29
1044.6	721.207
1045.65	722.524
1046.71	722.211
1047.76	721.566
1048.82	719.772
1049.87	715.758
1050.92	711.965
1051.97	708.426
1053.03	703.542
1054.08	700.167
1055.13	698.008
1056.18	694.016
1057.23	691.55
1058.28	691.142
1059.33	692.253
1060.38	694.911
1061.44	695.035
1062.48	694.571
1063.53	693.882
1064.58	693.628
1065.63	692.667
1066.68	691.86
1067.73	690.093
1068.78	688.149
1069.83	685.292
1070.87	681.801
1071.92	678.348
1072.97	675.138
1074.01	673.245
1075.06	672.981
1076.11	672.5
1077.15	671.658
1078.2	670.845
1079.24	669.888
1080.29	669.265
1081.33	668.657
1082.38	663.61
1083.42	661.932
1084.47	660.168
1085.51	659.254
1086.55	658.98
1087.6	658.302
1088.64	655.073
1089.68	651.645
1090.72	648.308
1091.77	645.664
1092.81	643.663
1093.85	641.628
1094.89	639.064
1095.93	637.118
1096.97	635.52
1098.01	633.847
1099.05	632.095
1100.09	632.592
1101.13	633.24
1102.17	634.238
1103.21	634.476
1104.25	636.889
1105.29	639.232
1106.33	642.329
1107.36	645.963
1108.4	648.248
1109.44	650.798
1110.48	653.559
1111.51	654.306
1112.55	655.073
1113.58	654.813
1114.62	652.189
1115.66	648.285
1116.69	643.844
1117.73	639.201
1118.76	633.82
1119.8	628.79
1120.83	626.084
1121.86	623.634
1122.9	621.865
1123.93	619.899
1124.96	619.321
1126	619.012
1127.03	620.139
1128.06	620.585
1129.1	621.943
1130.13	623.014
1131.16	625.565
1132.19	629.265
1133.22	632.95
1134.25	636.734
1135.28	642.117
1136.31	646.965
1137.34	651.99
1138.37	657.65
1139.4	661.502
1140.43	665.829
1141.46	670.136
1142.49	674.256
1143.51	678.246
1144.54	680.599
1145.57	683.913
1146.6	686.176
1147.62	683.853
1148.65	685.298
1149.68	688.144
1150.7	692.976
1151.73	700.75
1152.76	705.644
1153.78	711.348
1154.81	716.839
1155.83	722.085
1156.85	722.611
1157.88	721.001
1158.9	698.156
1159.93	688.175
1160.95	678.019
1161.97	657.711
1163	639.21
1164.02	632.804
1165.04	623.012
1166.06	612.243
1167.09	604.845
1168.11	599.578
1169.13	596.661
1170.15	597.741
1171.17	598.29
1172.19	599.881
1173.21	602.671
1174.23	606.017
1175.25	609.234
1176.27	613.505
1177.29	617.364
1178.31	620.559
1179.33	623.646
1180.34	626.128
1181.36	628.128
1182.38	628.478
1183.4	630.275
1184.41	630.012
1185.43	628.739
1186.45	627.165
1187.46	624.383
1188.48	621.233
1189.5	617.093
1190.51	611.215
1191.53	604.43
1192.54	597.461
1193.56	591.068
1194.57	583.992
1195.59	577.775
1196.6	572.935
1197.61	567.713
1198.63	563.401
1199.64	560.662
1200.65	558.101
1201.66	555.411
1202.68	553.97
1203.69	554.134
1204.7	554.041
1205.71	555.824
1206.72	558.08
1207.73	560.414
1208.74	562.019
1209.75	563.97
1210.76	567.316
1211.77	570.286
1212.78	573.233
1213.79	576.231
1214.8	579.178
1215.81	580.133
1216.82	579.324
1217.83	578.251
1218.84	577.126
1219.84	576.34
1220.85	576.12
1221.86	576.178
1222.86	575.377
1223.87	574.263
1224.88	572.666
1225.88	571.083
1226.89	568.249
1227.89	564.446
1228.9	561.514
1229.9	557.119
1230.91	551.611
1231.91	542.363
1232.92	533.955
1233.92	526.775
1234.92	519.623
1235.93	512.532
1236.93	506.233
1237.93	501.801
1238.93	504.93
1239.94	505.069
1240.94	503.468
1241.94	501.618
1242.94	500.007
1243.94	498.455
1244.94	496.425
1245.94	494.523
1246.94	492.588
1247.94	490.694
1248.94	488.76
1249.94	486.756
1250.94	484.96
1251.94	483.339
1252.94	482.127
1253.94	481.105
1254.93	480.819
1255.93	481.3
1256.93	482.279
1257.93	484.027
1258.92	485.991
1259.92	487.896
1260.92	487.992
1261.91	487.632
1262.91	487.646
1263.9	487.019
1264.9	486.008
1265.89	485.665
1266.89	484.855
1267.88	483.435
1268.88	481.266
1269.87	478.769
1270.87	476.162
1271.86	473.662
1272.85	471.378
1273.85	469.854
1274.84	468.912
1275.83	469.036
1276.82	470.038
1277.81	471.915
1278.8	474.401
1279.8	479.009
1280.79	482.054
1281.78	482.911
1282.77	483.357
1283.76	483.762
1284.75	483.87
1285.74	484.672
1286.73	484.034
1287.72	482.768
1288.71	480.247
1289.69	475.523
1290.68	471.049
1291.67	467.591
1292.66	464.121
1293.64	461.107
1294.63	458.87
1295.62	457.353
1296.61	456.501
1297.59	455.953
1298.58	455.288
1299.56	455.091
1300.55	455.504
1301.53	456.154
1302.52	456.875
1303.5	457.463
1304.49	457.658
1305.47	457.242
1306.46	455.842
1307.44	454.075
1308.42	451.94
1309.41	449.52
1310.39	446.695
1311.37	444.564
1312.35	440.858
1313.34	440.339
1314.32	440.358
1315.3	442.823
1316.28	443.609
1317.26	446.243
1318.24	450.841
1319.22	457.162
1320.2	464.389
1321.18	472.999
1322.16	482.539
1323.14	493.041
1324.12	499.009
1325.1	503.2
1326.08	503.83
1327.06	501.623
1328.03	497.192
1329.01	485.231
1329.99	476.622
1330.97	465.144
1331.94	454.034
1332.92	443.324
1333.9	435.363
1334.87	429.791
1335.85	425.761
1336.82	420.805
1337.8	418.585
1338.77	416.981
1339.75	415.647
1340.72	413.672
1341.7	411.662
1342.67	409.663
1343.64	407.695
1344.62	405.88
1345.59	404.312
1346.56	403.016
1347.54	402.095
1348.51	401.813
1349.48	401.746
1350.45	401.74
1351.42	401.693
1352.39	401.672
1353.37	401.486
1354.34	400.775
1355.31	399.83
1356.28	398.678
1357.25	397.376
1358.22	395.899
1359.19	394.274
1360.16	392.56
1361.12	390.83
1362.09	389.212
1363.06	388.138
1364.03	387.24
1365	386.781
1365.96	386.838
1366.93	386.59
1367.9	385.603
1368.86	384.495
1369.83	383.616
1370.8	383.325
1371.76	382.964
1372.73	382.738
1373.69	382.852
1374.66	384.048
1375.62	384.959
1376.59	385.759
1377.55	386.973
1378.52	387.153
1379.48	388.373
1380.44	388.91
1381.41	388.429
1382.37	387.136
1383.33	385.846
1384.3	384.517
1385.26	383.116
1386.22	381.509
1387.18	379.826
1388.14	378.135
1389.1	376.51
1390.06	374.936
1391.02	373.704
1391.98	372.675
1392.94	371.911
1393.9	371.771
1394.86	371.691
1395.82	371.646
1396.78	371.417
1397.74	371.069
1398.7	370.013
1399.66	369.103
1400.61	367.85
1401.57	366.381
1402.53	364.73
1403.49	362.961
1404.44	361.149
1405.4	359.376
1406.36	357.76
1407.31	356.566
1408.27	356.067
1409.22	355.743
1410.18	354.402
1411.13	352.447
1412.09	351.145
1413.04	349.813
1414	349.195
1414.95	349.271
1415.9	348.875
1416.86	348.661
1417.81	348.223
1418.76	348.477
1419.72	347.648
1420.67	347.01
1421.62	346.42
1422.57	345.747
1423.52	345.272
1424.47	344.919
1425.42	344.994
1426.38	345.378
1427.33	347.153
1428.28	350.021
1429.23	353.564
1430.18	356.152
1431.12	358.216
1432.07	360.16
1433.02	361.886
1433.97	359.647
1434.92	357.552
1435.87	357.023
1436.82	356.703
1437.76	357.673
1438.71	359.97
1439.66	360.295
1440.6	359.038
1441.55	357.956
1442.5	355.395
1443.44	352.375
1444.39	351.412
1445.33	350.133
1446.28	349.423
1447.22	348.608
1448.17	347.592
1449.11	346.206
1450.06	344.298
1451	340.877
1451.94	337.468
1452.89	334.28
1453.83	331.581
1454.77	328.988
1455.71	326.633
1456.66	324.705
1457.6	323.065
1458.54	322.002
1459.48	321.286
1460.42	320.788
1461.36	320.504
1462.3	320.469
1463.24	320.57
1464.18	320.768
1465.12	320.937
1466.06	321.041
1467	321.02
1467.94	320.738
1468.88	319.971
1469.82	318.454
1470.76	317.047
1471.69	315.813
1472.63	314.785
1473.57	314.077
1474.51	313.959
1475.44	314.113
1476.38	314.352
1477.32	314.868
1478.25	315.571
1479.19	316.403
1480.12	317.627
1481.06	319.045
1481.99	320.8
1482.93	322.73
1483.86	325.553
1484.8	328.642
1485.73	331.39
1486.67	331.513
1487.6	329.495
1488.53	327.393
1489.47	325.794
1490.4	323.73
1491.33	321.436
1492.26	319.278
1493.19	317.484
1494.13	315.768
1495.06	313.937
1495.99	312.923
1496.92	312.131
1497.85	309.911
1498.78	308.26
1499.71	307.688
1500.64	307.636
1501.57	307.996
1502.5	308.812
1503.43	310.338
1504.36	311.87
1505.28	313.688
1506.21	315.567
1507.14	317.894
1508.07	320.847
1509	324.585
1509.92	329.117
1510.85	335.188
1511.78	341.795
1512.7	349.059
1513.63	356.845
1514.55	364.74
1515.48	372.45
1516.4	380.454
1517.33	389.811
1518.25	399.245
1519.18	408.64
1520.1	417.287
1521.03	423.914
1521.95	432.594
1522.87	438.124
1523.8	441.74
1524.72	443.846
1525.64	442.681
1526.57	439.494
1527.49	435.123
1528.41	429.625
1529.33	421.693
1530.25	414.989
1531.17	407.099
1532.1	399.109
1533.02	391.195
1533.94	382.488
1534.86	373.844
1535.78	367.009
1536.7	359.042
1537.61	352.551
1538.53	344.306
1539.45	337.19
1540.37	331.71
1541.29	327.629
1542.21	323.811
1543.12	321.126
1544.04	318.277
1544.96	317.507
1545.88	318.01
1546.79	318.564
1547.71	320.835
1548.63	320.852
1549.54	320.681
1550.46	320.307
1551.37	319.256
1552.29	317.884
1553.2	314.726
1554.12	310.294
1555.03	305.144
1555.95	299.335
1556.86	294.761
1557.77	291.156
1558.69	287.069
1559.6	283.401
1560.51	279.659
1561.42	276.682
1562.34	272.902
1563.25	274.907
1564.16	269.475
1565.07	262.186
1565.98	265.372
1566.89	269.704
1567.8	268.864
1568.71	267
1569.62	265.134
1570.53	263.396
1571.44	261.973
1572.35	260.89
1573.26	260.076
1574.17	259.85
1575.08	259.789
1575.99	260.028
1576.9	260.664
1577.8	261.887
1578.71	263.069
1579.62	263.294
1580.53	263.325
1581.43	263.135
1582.34	262.283
1583.25	261.524
1584.15	260.675
1585.06	260.023
1585.96	259.794
1586.87	259.843
1587.77	260.077
1588.68	260.229
1589.58	260.52
1590.49	261.117
1591.39	261.904
1592.29	262.32
1593.2	262.605
1594.1	263.012
1595	263.405
1595.91	263.897
1596.81	264.693
1597.71	265.882
1598.61	267.022
1599.51	267.902
1600.41	268.864
1601.32	270.205
1602.22	271.499
1603.12	272.538
1604.02	273.434
1604.92	274.14
1605.82	274.634
1606.72	274.83
1607.62	274.377
1608.51	271.26
1609.41	270.828
1610.31	270.387
1611.21	269.101
1612.11	267.891
1613.01	265.904
1613.9	263.939
1614.8	262.229
1615.7	260.046
1616.59	257.797
1617.49	255.956
1618.39	254.42
1619.28	252.997
1620.18	251.49
1621.07	250.027
1621.97	248.786
1622.86	247.829
1623.76	247.276
1624.65	247.162
1625.55	247.601
1626.44	248.312
1627.33	247.982
1628.23	246.381
1629.12	244.87
1630.01	243.632
1630.91	242.817
1631.8	242.088
1632.67	241.471
1633.6	240.939
1634.53	240.531
1635.46	240.276
1636.39	240.135
1637.31	240.13
1638.24	237.199
1639.17	234.22
1640.1	232.447
1641.02	230.68
1641.95	229.087
1642.88	228.012
1643.8	227.587
1644.73	227.771
1645.65	228.403
1646.58	229.143
1647.5	230.087
1648.43	231.105
1649.35	232.063
1650.28	233.025
1651.2	233.852
1652.13	234.556
1653.05	235.179
1653.97	235.645
1654.9	236.026
1655.82	236.198
1656.74	236.219
1657.66	236.097
1658.59	235.715
1659.51	235.123
1660.43	234.209
1661.35	233.224
1662.27	232.129
1663.2	231.306
1664.12	230.81
1665.04	230.635
1665.96	230.586
1666.88	230.638
1667.8	231.413
1668.72	232.232
1669.64	232.657
1670.56	232.973
1671.48	232.663
1672.4	232.17
1673.31	231.602
1674.23	230.967
1675.15	230.341
1676.07	229.768
1676.99	229.111
1677.9	228.544
1678.82	227.906
1679.74	227.376
1680.66	226.828
1681.57	226.195
1682.49	225.712
1683.41	225.256
1684.32	224.774
1685.24	223.992
1686.15	223.504
1687.07	222.732
1687.98	221.853
1688.9	221.247
1689.81	221.151
1690.73	220.769
1691.64	220.04
1692.56	219.175
1693.47	218.308
1694.38	217.272
1695.3	216.072
1696.21	214.496
1697.12	212.989
1698.04	211.461
1698.95	209.773
1699.86	208.155
1700.77	206.702
1701.68	206.489
1702.6	205.963
1703.51	205.026
1704.42	204.402
1705.33	204.031
1706.24	203.646
1707.15	203.16
1708.06	202.625
1708.97	202.122
1709.88	201.223
1710.79	199.552
1711.7	198.213
1712.61	196.865
1713.52	195.747
1714.43	196.476
1715.33	197.168
1716.24	198.689
1717.15	199.734
1718.06	198.408
1718.97	197.381
1719.87	197.01
1720.78	196.639
1721.69	196.41
1722.59	193.599
1723.5	193.163
1724.41	193.919
1725.31	193.444
1726.22	193.032
1727.12	192.563
1728.03	192.009
1728.93	191.33
1729.84	190.346
1730.74	189.24
1731.65	188.22
1732.55	187.385
1733.46	186.88
1734.36	186.612
1735.26	186.512
1736.17	186.443
1737.07	186.449
1737.97	186.413
1738.87	186.787
1739.78	189.281
1740.68	190.269
1741.58	191.216
1742.48	191.24
1743.38	190.35
1744.29	190.022
1745.19	190.435
1746.09	191.304
1746.99	192.475
1747.89	192.648
1748.79	191.964
1749.69	191.354
1750.59	191.097
1751.49	190.912
1752.39	190.8
1753.29	190.591
1754.18	189.825
1755.08	188.736
1755.98	187.674
1756.88	186.704
1757.78	185.84
1758.67	185.1
1759.57	184.489
1760.47	184.011
1761.37	183.623
1762.26	183.432
1763.16	183.297
1764.06	183.415
1764.95	183.588
1765.85	183.818
1766.74	184.455
1767.64	185.176
1768.53	185.541
1769.43	185.6
1770.32	185.219
1771.22	184.151
1772.11	183.013
1773.01	181.968
1773.9	181.309
1774.79	180.784
1775.69	180.278
1776.58	179.836
1777.47	179.465
1778.37	179.024
1779.26	178.897
1780.15	178.929
1781.04	178.945
1781.93	178.948
1782.83	178.783
1783.72	178.521
1784.61	178.237
1785.5	177.869
1786.39	177.437
1787.28	176.874
1788.17	176.011
1789.06	175.005
1789.95	173.993
1790.84	172.783
1791.73	171.549
1792.62	170.291
1793.51	169.126
1794.4	168.095
1795.28	167.919
1796.17	167.006
1797.06	167.437
1797.95	167.239
1798.84	166.962
1799.72	166.485
