Acq. time (s)=	15
Accumulations=	2
Range (cm-¹)=	600...1800
Windows=	2
Autofocus=	Off
AutoExposure=	Off
Spike filter=	Multiple accum.
Delay time (s)=	1
Binning=	1
Readout mode=	Signal
DeNoise=	Standard
ICS correction=	Off
Dark correction=	Off
Inst. Process=	Off
Instrument=	XploRA
Detector=	Syncerity
Objective=	x20LWD
Grating=	1200 gr/mm
Filter=	25%
Laser (nm)=	785 
Slit (µm)=	100 
Hole (µm)=	300 
Laser pol=	None
Raman pol=	None
Output=	Camera
StageXY=	Marzhauser
StageZ=	
X (µm)=	3996.9
Y (µm)=	9953.5
Project=	
Sample=	
Site=	
Title=	CLs P5
Remark=	
Date=	15.10.2021 18:42
Operator=	
Power=	
Acquired=	15.10.2021 18:42:51
601.097	718.231
602.266	722.855
603.435	724.791
604.603	728.127
605.771	732.983
606.939	738.933
608.106	745.326
609.273	751.294
610.44	756.047
611.606	756.962
612.772	758.034
613.938	758.644
615.104	759.191
616.268	759.605
617.433	760.143
618.598	760.762
619.763	761.733
620.926	762.752
622.091	763.888
623.254	765.159
624.417	765.775
625.58	765.237
626.742	764.872
627.906	765.756
629.068	767.095
630.229	768.315
631.391	768.873
632.551	769.118
633.712	769.105
634.873	768.82
636.033	768.328
637.193	767.388
638.352	765.494
639.512	763.362
640.671	762.709
641.83	762.065
642.988	760.845
644.147	759.314
645.305	758.103
646.462	756.72
647.62	754.975
648.777	753.524
649.934	752.023
651.09	750.437
652.247	749.034
653.402	747.929
654.558	746.878
655.713	745.033
656.868	742.216
658.023	740.637
659.177	739.393
660.331	738.882
661.485	738.734
662.639	739.128
663.792	739.145
664.945	738.84
666.098	738.064
667.25	737.62
668.402	737.315
669.554	737.622
670.705	738.687
671.857	741.737
673.007	743.817
674.158	745.369
675.309	745.994
676.459	745.633
677.609	744.594
678.758	743.076
679.907	741.288
681.056	739.724
682.205	738.503
683.353	737.622
684.501	737.238
685.649	735.926
686.796	733.16
687.943	730.057
689.09	727.038
690.236	724.665
691.383	723.067
692.529	723.336
693.675	721.566
694.82	720.102
695.965	719.973
697.11	720.06
698.254	719.729
699.398	719.429
700.542	718.77
701.686	718.365
702.829	717.852
703.973	716.976
705.116	715.579
706.258	713.189
707.4	709.887
708.542	706.354
709.684	703.731
710.825	701.372
711.966	699.061
713.107	697.27
714.247	693.664
715.387	692.531
716.527	691.391
717.667	691.282
718.806	694.114
719.945	694.373
721.084	692.291
722.223	688.108
723.361	684.239
724.498	680.397
725.636	679.419
726.773	678.534
727.91	678.765
729.047	679.117
730.183	680.531
731.32	679.811
732.455	684.017
733.591	689.549
734.726	694.242
735.861	698.949
736.996	702.06
738.13	704.54
739.264	705.939
740.398	706.695
741.532	706.477
742.665	705.341
743.797	702.702
744.93	697.236
746.063	691.919
747.195	686.348
748.326	691.779
749.458	686.841
750.589	682.436
751.72	678.12
752.851	674.386
753.981	671.251
755.111	667.429
756.241	663.648
757.371	659.922
758.499	656.217
759.628	652.274
760.757	648.49
761.885	644.895
763.014	642.15
764.141	639.682
765.268	637.437
766.395	635.615
767.523	633.189
768.649	628.978
769.775	625.534
770.901	623.414
772.027	621.949
773.153	620.694
774.277	619.18
775.403	617.451
776.527	615.679
777.651	613.165
778.776	612.102
779.899	611.144
781.023	610.217
782.146	608.695
783.269	606.595
784.39	604.446
785.513	602.636
786.635	601.271
787.757	599.682
788.878	598.017
789.999	595.472
791.12	593.438
792.24	593.224
793.36	593.096
794.48	592.552
795.6	592.071
796.72	591.557
797.839	590.935
798.957	590.204
800.076	589.36
801.194	588.381
802.313	587.246
803.43	585.906
804.547	584.471
805.664	582.761
806.781	580.884
807.898	579.06
809.014	577.425
810.13	574.282
811.245	570.899
812.361	568.388
813.476	566.515
814.591	565.16
815.705	562.574
816.819	560.971
817.933	560.932
819.047	561.501
820.16	562.307
821.273	563.589
822.386	565.05
823.498	565.188
824.611	564.006
825.723	563.481
826.835	563.743
827.946	564.727
829.057	566.273
830.167	567.821
831.278	565.982
832.388	563.654
833.498	561.076
834.608	558.69
835.717	557.938
836.826	557.296
837.935	556.389
839.043	555.774
840.152	555.07
841.26	554.276
842.367	553.56
843.474	552.056
844.582	550.267
845.688	548.543
846.794	546.856
847.901	545.652
849.006	544.425
850.112	543.299
851.217	542.302
852.322	541.424
853.428	540.63
854.532	539.911
855.636	539.386
856.74	538.834
857.843	538.185
858.947	536.16
860.05	534.357
861.153	532.941
862.255	531.5
863.358	530.049
864.459	528.787
865.561	527.64
866.662	527.046
867.763	526.776
868.864	526.546
869.964	525.779
871.065	525.059
872.165	524.554
873.264	523.91
874.363	522.147
875.463	519.746
876.561	515.743
877.66	511.326
878.758	508.009
879.856	505.396
880.954	502.134
882.051	500.936
883.148	500.819
884.244	501.152
885.341	501.551
886.437	501.955
887.533	502.427
888.629	502.66
889.724	503.268
890.819	503.444
891.914	502.981
893.009	502.773
894.102	501.023
895.197	497.977
896.29	493.162
897.384	490.861
898.477	488.837
899.569	487.478
900.662	487.033
901.754	487.243
902.846	487.662
903.938	487.216
905.029	487.205
906.12	488.098
907.211	489.399
908.301	490.988
909.391	492.868
910.481	494.774
911.571	496.603
912.66	494.664
913.749	491.996
914.838	489.546
915.927	487.369
917.015	485.305
918.103	483.14
919.191	480.929
920.279	478.875
921.365	477.037
922.452	475.419
923.539	474.673
924.625	474.134
925.711	469.549
926.796	465.007
927.882	461.12
928.967	457.869
930.052	455.467
931.136	454.751
932.221	453.78
933.305	452.58
934.389	451.229
935.472	450.004
936.555	448.69
937.638	446.943
938.721	445.367
939.802	444.476
940.885	443.386
941.966	443.236
943.048	444.4
944.129	445.519
945.209	446.159
946.29	446.244
947.371	446.077
948.451	445.659
949.531	445.011
950.61	443.933
951.689	442.674
952.768	441.419
953.847	440.265
954.925	439.342
956.003	438.391
957.081	437.287
958.158	436.207
959.236	434.646
960.312	433.238
961.389	433.436
962.465	433.872
963.542	434.123
964.617	433.995
965.693	433.937
966.768	433.783
967.843	433.84
968.918	434.075
969.991	434.269
971.066	433.187
972.139	430.535
973.213	429.05
974.286	428.004
975.359	426.954
976.432	425.582
977.504	424.576
978.576	424.759
979.648	425.522
980.72	426.768
981.791	428.098
982.862	429.509
983.933	430.788
985.004	431.967
986.074	432.737
987.143	433.358
988.213	433.794
989.282	433.262
990.351	432.625
991.42	431.707
992.489	430.06
993.557	428.349
994.624	426.199
995.692	424.243
996.76	424.526
997.827	425.1
998.893	425.658
999.96	427.317
1001.03	432.115
1002.09	430.067
1003.16	427.107
1004.22	424.06
1005.29	420.864
1006.35	417.391
1007.42	413.854
1008.48	409.891
1009.54	405.57
1010.61	400.91
1011.67	396.334
1012.74	392.126
1013.8	388.562
1014.86	386.116
1015.92	384.092
1016.99	382.315
1018.05	380.772
1019.11	379.324
1020.17	378.055
1021.23	376.845
1022.29	375.822
1023.35	374.944
1024.41	374.205
1025.47	373.677
1026.53	373.252
1027.59	373.038
1028.65	372.926
1029.71	372.956
1030.77	373.124
1031.82	373.32
1032.88	373.644
1033.94	373.907
1035	373.915
1036.05	374.303
1037.11	374.678
1038.17	374.432
1039.22	373.806
1040.28	372.955
1041.33	372.071
1042.39	371.378
1043.44	370.708
1044.5	370.094
1045.55	368.874
1046.61	367.523
1047.66	366.102
1048.71	365.109
1049.77	364.413
1050.82	363.657
1051.87	363.405
1052.93	363.311
1053.98	363.314
1055.03	360.782
1056.08	359.879
1057.13	360.191
1058.18	360.737
1059.23	361.098
1060.29	361.288
1061.34	360.511
1062.39	359.618
1063.44	358.523
1064.48	357.102
1065.53	355.335
1066.58	353.587
1067.63	352.288
1068.68	351.303
1069.73	350.59
1070.78	349.128
1071.82	346.631
1072.87	345.144
1073.92	343.736
1074.96	342.714
1076.01	341.243
1077.06	339.895
1078.1	338.744
1079.15	337.985
1080.19	338.053
1081.24	338.52
1082.28	338.682
1083.33	338.174
1084.37	337.533
1085.41	336.828
1086.46	336.073
1087.5	335.276
1088.54	334.573
1089.59	333.836
1090.63	333.134
1091.67	332.459
1092.71	331.889
1093.76	331.285
1094.8	330.827
1095.84	330.227
1096.88	329.632
1097.92	329.017
1098.96	328.775
1100	329.537
1101.04	330.204
1102.08	330.77
1103.12	330.708
1104.16	329.915
1105.19	328.809
1106.23	327.809
1107.27	327.283
1108.31	326.913
1109.35	326.628
1110.38	326.384
1111.42	326.26
1112.46	326.164
1113.49	325.982
1114.53	325.417
1115.56	324.428
1116.6	323.298
1117.64	321.325
1118.67	319.19
1119.71	317.507
1120.74	315.961
1121.77	314.604
1122.81	312.858
1123.84	311.377
1124.87	310.177
1125.91	309.327
1126.94	308.919
1127.97	309.426
1129	310.424
1130.04	311.863
1131.07	314.13
1132.1	317.015
1133.13	320.487
1134.16	324.301
1135.19	327.714
1136.22	331.357
1137.25	334.625
1138.28	337.548
1139.31	339.978
1140.34	342.147
1141.37	343.948
1142.4	345.095
1143.43	345.822
1144.45	344.822
1145.48	344.378
1146.51	343.839
1147.54	343.24
1148.56	345.059
1149.59	346.763
1150.62	349.029
1151.64	355.114
1152.67	359.886
1153.69	362.892
1154.72	363.364
1155.74	361.972
1156.77	359.948
1157.79	356.299
1158.82	345.956
1159.84	339.641
1160.86	332.663
1161.89	326.034
1162.91	319.682
1163.93	313.805
1164.96	308.873
1165.98	306.409
1167	304.308
1168.02	302.376
1169.04	301.142
1170.06	300.453
1171.09	300.319
1172.11	300.909
1173.13	302.419
1174.15	304.328
1175.17	306.654
1176.19	309.127
1177.2	311.321
1178.22	313.512
1179.24	315.357
1180.26	317.438
1181.28	319.147
1182.3	320.478
1183.31	321.385
1184.33	321.783
1185.35	321.475
1186.37	320.365
1187.38	318.839
1188.4	316.81
1189.41	314.16
1190.43	310.869
1191.45	307.124
1192.46	302.887
1193.47	298.408
1194.49	294.385
1195.5	290.564
1196.52	286.958
1197.53	283.598
1198.55	280.741
1199.56	279.005
1200.57	278.408
1201.58	277.637
1202.6	277.313
1203.61	277.455
1204.62	278.029
1205.63	279.038
1206.64	280.358
1207.65	281.918
1208.66	285.831
1209.67	285.558
1210.68	283.303
1211.69	281.328
1212.7	280.151
1213.71	279.795
1214.72	280.551
1215.73	282.117
1216.74	285.108
1217.75	291.366
1218.76	293.983
1219.76	295.934
1220.77	296.771
1221.78	296.034
1222.79	294.939
1223.79	293.575
1224.8	291.777
1225.8	289.069
1226.81	286.038
1227.82	282.962
1228.82	279.708
1229.83	276.629
1230.83	273.687
1231.83	271.193
1232.84	268.936
1233.84	267.131
1234.85	265.67
1235.85	264.25
1236.85	262.041
1237.86	260.065
1238.86	258.265
1239.86	256.764
1240.86	255.43
1241.86	254.502
1242.86	253.838
1243.87	253.253
1244.87	252.909
1245.87	250.979
1246.87	249.94
1247.87	248.869
1248.87	247.883
1249.87	247.016
1250.87	247.014
1251.87	247.187
1252.86	247.346
1253.86	247.435
1254.86	247.462
1255.86	247.376
1256.86	247.101
1257.85	246.686
1258.85	246.028
1259.85	245.218
1260.84	243.998
1261.84	242.449
1262.84	240.761
1263.83	239.459
1264.83	238.623
1265.82	238.38
1266.82	238.478
1267.81	239.079
1268.81	238.473
1269.8	236.981
1270.79	235.637
1271.79	234.753
1272.78	234.413
1273.77	234.488
1274.77	233.592
1275.76	233.551
1276.75	234.495
1277.74	239.832
1278.73	242.141
1279.73	243.862
1280.72	244.905
1281.71	245.344
1282.7	245.576
1283.69	244.91
1284.68	243.991
1285.67	242.784
1286.66	241.789
1287.65	241.201
1288.64	240.321
1289.62	239.337
1290.61	238.136
1291.6	236.326
1292.59	234.734
1293.58	233.376
1294.56	232.394
1295.55	231.71
1296.54	231.6
1297.52	231.853
1298.51	232.324
1299.5	231.97
1300.48	230.274
1301.47	228.239
1302.45	227.122
1303.44	227.348
1304.42	226.28
1305.41	228.755
1306.39	229.204
1307.37	228.41
1308.36	226.593
1309.34	223.878
1310.32	214.139
1311.31	213.997
1312.29	214.878
1313.27	215.605
1314.25	216.898
1315.23	219.046
1316.21	221.799
1317.2	225.404
1318.18	229.559
1319.16	234.271
1320.14	239.471
1321.12	245.088
1322.1	247.537
1323.08	248.894
1324.06	249.767
1325.03	250.051
1326.01	249.739
1326.99	248.808
1327.97	247.302
1328.95	243.963
1329.92	239.096
1330.9	233.293
1331.88	226.774
1332.86	221.786
1333.83	218.449
1334.81	216.546
1335.78	212.29
1336.76	208.766
1337.74	206.099
1338.71	204.168
1339.69	203.09
1340.66	202.871
1341.63	203.251
1342.61	203.908
1343.58	204.031
1344.56	204.316
1345.53	204.946
1346.5	205.874
1347.47	206.701
1348.45	207.517
1349.42	208.129
1350.39	208.399
1351.36	208.378
1352.33	208.108
1353.31	207.485
1354.28	206.316
1355.25	204.285
1356.22	202.135
1357.19	199.995
1358.16	198.16
1359.13	196.511
1360.09	195.111
1361.06	193.848
1362.03	192.923
1363	192.169
1363.97	191.628
1364.94	191.291
1365.9	191.143
1366.87	191.252
1367.84	191.413
1368.81	191.717
1369.77	192.13
1370.74	192.593
1371.7	193.332
1372.67	194.083
1373.64	193.84
1374.6	193.564
1375.57	193.29
1376.53	193.092
1377.49	192.828
1378.46	192.524
1379.42	192.511
1380.39	192.592
1381.35	192.659
1382.31	192.759
1383.28	192.672
1384.24	192.497
1385.2	191.985
1386.16	191.609
1387.12	191.391
1388.09	183.224
1389.05	191.293
1390.01	192.614
1390.97	192.617
1391.93	191.85
1392.89	190.267
1393.85	188.636
1394.81	187.646
1395.77	187.131
1396.73	186.834
1397.68	185.78
1398.64	184.792
1399.6	183.807
1400.56	182.871
1401.52	181.973
1402.47	181.157
1403.43	180.366
1404.39	179.675
1405.35	179.067
1406.3	178.473
1407.26	178.016
1408.21	177.55
1409.17	177.17
1410.12	176.224
1411.08	175.196
1412.03	174.64
1412.99	174.241
1413.94	174.529
1414.9	174.733
1415.85	175.101
1416.8	175.474
1417.76	176.026
1418.71	176.136
1419.66	175.643
1420.62	175.016
1421.57	174.298
1422.52	173.192
1423.47	172.087
1424.42	171.161
1425.37	171.433
1426.32	172.201
1427.27	173.43
1428.22	174.889
1429.17	176.497
1430.12	178.227
1431.07	179.855
1432.02	181.471
1432.97	182.861
1433.92	184.3
1434.87	184.545
1435.82	183.95
1436.76	183.325
1437.71	182.642
1438.66	181.891
1439.61	181.166
1440.55	180.378
1441.5	179.744
1442.45	179.028
1443.39	178.157
1444.34	177.339
1445.28	175.724
1446.23	174.12
1447.17	172.533
1448.12	171.154
1449.06	169.937
1450.01	168.772
1450.95	167.758
1451.89	166.822
1452.84	165.989
1453.78	165.239
1454.72	164.551
1455.67	163.965
1456.61	163.452
1457.55	163.047
1458.49	162.676
1459.43	162.416
1460.37	162.187
1461.32	162.082
1462.26	161.975
1463.2	161.926
1464.14	161.937
1465.08	162.191
1466.02	162.458
1466.96	162.769
1467.89	163.087
1468.83	163.117
1469.77	162.657
1470.71	161.945
1471.65	161.43
1472.59	161.068
1473.52	161.135
1474.46	161.273
1475.4	161.375
1476.33	161.486
1477.27	161.563
1478.21	161.425
1479.14	161.08
1480.08	160.719
1481.01	160.445
1481.95	160.302
1482.88	161.109
1483.82	162.153
1484.75	162.393
1485.69	162.143
1486.62	161.672
1487.56	161.08
1488.49	160.834
1489.42	160.349
1490.35	159.849
1491.29	159.294
1492.22	158.765
1493.15	158.276
1494.08	157.996
1495.01	156.446
1495.94	155.324
1496.88	154.529
1497.81	154.056
1498.74	153.827
1499.67	154.07
1500.6	154.356
1501.53	154.816
1502.46	155.507
1503.39	156.465
1504.31	157.701
1505.24	159.221
1506.17	161.047
1507.1	163.072
1508.03	165.693
1508.95	168.76
1509.88	171.513
1510.81	173.406
1511.74	175.498
1512.66	177.845
1513.59	180.561
1514.51	183.55
1515.44	186.888
1516.36	190.51
1517.29	194.42
1518.21	198.614
1519.14	203.307
1520.06	208.104
1520.99	212.917
1521.91	216.614
1522.84	219.605
1523.76	221.78
1524.68	221.878
1525.6	221.161
1526.53	219.44
1527.45	216.769
1528.37	213.172
1529.29	209.12
1530.21	204.807
1531.14	200.784
1532.06	196.804
1532.98	192.896
1533.9	189.076
1534.82	185.595
1535.74	181.754
1536.66	178.104
1537.58	174.289
1538.5	170.284
1539.41	166.567
1540.33	163.435
1541.25	160.64
1542.17	158.664
1543.09	156.918
1544.01	155.451
1544.92	154.293
1545.84	153.427
1546.76	152.8
1547.67	152.513
1548.59	152.379
1549.51	152.311
1550.42	151.951
1551.34	151.047
1552.25	148.743
1553.17	146.148
1554.08	143.368
1555	140.266
1555.91	137.069
1556.82	133.95
1557.74	131.32
1558.65	129.113
1559.56	127.391
1560.48	125.796
1561.39	124.28
1562.3	123.029
1563.21	121.661
1564.13	120.317
1565.04	119.156
1565.95	117.95
1566.86	116.747
1567.77	115.61
1568.68	114.744
1569.59	113.953
1570.5	113.209
1571.41	112.493
1572.32	111.763
1573.23	110.964
1574.14	110.011
1575.05	108.914
1575.96	107.972
1576.86	107.184
1577.77	106.764
1578.68	106.238
1579.59	105.43
1580.49	104.584
1581.4	104.015
1582.31	103.546
1583.21	102.984
1584.12	102.661
1585.03	102.332
1585.93	101.905
1586.84	101.429
1587.74	101.079
1588.65	100.402
1589.55	99.7753
1590.46	98.8109
1591.36	98.0229
1592.26	97.0243
1593.17	95.9605
1594.07	95.2558
1594.97	95.0391
1595.88	94.821
1596.78	94.2005
1597.68	93.6143
1598.58	93.2169
1599.48	92.9767
1600.39	92.7225
1601.29	92.2586
1602.19	91.714
1603.09	91.1959
1603.99	90.3107
1604.89	89.1527
1605.79	88.1999
1606.69	87.4519
1607.59	86.5546
1608.49	85.991
1609.39	85.9201
1610.28	85.5504
1611.18	85.0699
1612.08	84.8717
1612.98	84.7029
1613.88	84.0583
1614.77	83.326
1615.67	82.6156
1616.57	81.8789
1617.46	80.8384
1618.36	79.7603
1619.26	78.4379
1620.15	77.2633
1621.05	76.3772
1621.94	75.5631
1622.84	74.8538
1623.73	74.2769
1624.63	73.7468
1625.52	73.1029
1626.41	72.4454
1627.31	72.1023
1628.2	71.9176
1629.09	71.8151
1629.99	71.4778
1630.88	71.1694
1631.77	70.9552
1632.65	70.7211
1633.58	70.7653
1634.51	70.8734
1635.43	70.5181
1636.36	70.1112
1637.29	69.9716
1638.22	69.7558
1639.15	69.8832
1640.07	69.6848
1641	69.5731
1641.93	69.8409
1642.85	69.7221
1643.78	69.9092
1644.7	69.7439
1645.63	69.6092
1646.55	68.6776
1647.48	67.6624
1648.41	66.6904
1649.33	66.075
1650.25	66.0736
1651.18	65.8932
1652.1	66.0888
1653.03	66.7071
1653.95	66.9043
1654.87	67.0885
1655.8	67.1586
1656.72	67.5194
1657.64	68.1216
1658.56	68.7843
1659.49	69.3869
1660.41	70.0597
1661.33	70.507
1662.25	70.5894
1663.17	70.0396
1664.1	69.7295
1665.02	69.1516
1665.94	68.7122
1666.86	68.6194
1667.78	68.5068
1668.7	68.0594
1669.62	67.5805
1670.54	67.5874
1671.46	67.4356
1672.38	67.5009
1673.29	67.7126
1674.21	68.1787
1675.13	68.7458
1676.05	69.5461
1676.97	69.9048
1677.89	70.3544
1678.8	70.7558
1679.72	70.5647
1680.64	70.2635
1681.55	69.5447
1682.47	68.8003
1683.39	67.651
1684.3	66.6179
1685.22	65.7131
1686.14	65.0774
1687.05	64.8823
1687.97	64.4702
1688.88	64.3809
1689.8	63.7901
1690.71	63.1976
1691.63	62.835
1692.54	62.6814
1693.45	62.2579
1694.37	62.1447
1695.28	61.8908
1696.19	62.3231
1697.11	62.9804
1698.02	63.1227
1698.93	63.0014
1699.84	62.8505
1700.76	62.5795
1701.67	61.9204
1702.58	60.943
1703.49	60.5462
1704.4	60.3687
1705.31	60.3614
1706.22	59.8528
1707.14	59.6019
1708.05	58.6249
1708.96	58.176
1709.87	57.9281
1710.78	57.9091
1711.68	58.0072
1712.59	58.2704
1713.5	58.5842
1714.41	59.362
1715.32	59.6562
1716.23	59.8009
1717.14	59.9082
1718.04	59.6283
1718.95	59.4023
1719.86	58.7731
1720.77	58.2581
1721.67	58.1294
1722.58	57.9986
1723.49	57.9659
1724.39	58.2682
1725.3	58.6565
1726.21	58.483
1727.11	58.8009
1728.02	59.0984
1728.92	59.3434
1729.83	59.4419
1730.73	59.5685
1731.64	60.2024
1732.54	60.8507
1733.44	61.1317
1734.35	61.2344
1735.25	61.4532
1736.15	61.0767
1737.06	60.6208
1737.96	59.9696
1738.86	59.4329
1739.77	58.8227
1740.67	58.3751
1741.57	57.9248
1742.47	57.5897
1743.37	57.2105
1744.27	56.7452
1745.18	56.4052
1746.08	56.0585
1746.98	56.0806
1747.88	55.8996
1748.78	55.6471
1749.68	55.6319
1750.58	55.4816
1751.48	55.8739
1752.38	56.1145
1753.28	56.7363
1754.17	56.868
1755.07	56.7354
1755.97	56.4013
1756.87	56.197
1757.77	55.959
1758.66	55.648
1759.56	55.6005
1760.46	55.5666
1761.36	55.7905
1762.25	55.911
1763.15	56.3645
1764.05	56.5502
1764.94	56.8643
1765.84	56.9692
1766.73	56.9777
1767.63	56.9656
1768.53	57.0963
1769.42	57.1111
1770.32	56.7466
1771.21	56.3792
1772.1	55.7565
1773	54.9563
1773.89	54.0271
1774.79	53.6137
1775.68	53.369
1776.57	53.3263
1777.47	53.6235
1778.36	53.7851
1779.25	53.8602
1780.14	54.0901
1781.04	54.4733
1781.93	54.6107
1782.82	54.7726
1783.71	54.6155
1784.6	54.1918
1785.49	53.9275
1786.38	53.5
1787.27	52.8845
1788.17	52.4801
1789.06	52.2822
1789.95	52.0262
1790.84	51.8773
1791.72	51.6269
1792.61	51.643
1793.5	51.6532
1794.39	52.1651
1795.28	52.7401
1796.17	53.0126
1797.06	52.8066
1797.94	52.2885
1798.83	51.2235
1799.72	43.669
