Acq. time (s)=	15
Accumulations=	2
Range (cm-¹)=	600...1800
Windows=	2
Autofocus=	Off
AutoExposure=	Off
Spike filter=	Multiple accum.
Delay time (s)=	1
Binning=	1
Readout mode=	Signal
DeNoise=	Standard
ICS correction=	Off
Dark correction=	Off
Inst. Process=	Off
Instrument=	XploRA
Detector=	Syncerity
Objective=	x20LWD
Grating=	1200 gr/mm
Filter=	25%
Laser (nm)=	785 
Slit (µm)=	100 
Hole (µm)=	300 
Laser pol=	None
Raman pol=	None
Output=	Camera
StageXY=	Marzhauser
StageZ=	
X (µm)=	-3770.1
Y (µm)=	2806.6
Project=	
Sample=	
Site=	
Title=	Cmm1 s-t
Remark=	
Date=	22.07.2022 02:13
Acquired=	22.07.2022 02:13:21
600.839	460.7
602.009	466.211
603.178	470.5
604.347	473.713
605.516	476.092
606.684	477.312
607.852	479.172
609.02	480.508
610.187	482.026
611.355	483.863
612.521	486.868
613.688	489.316
614.854	491.824
616.02	494.525
617.185	497.466
618.351	500.608
619.516	503.939
620.681	507.365
621.846	511.152
623.009	516.176
624.174	520.915
625.337	525.478
626.501	528.836
627.664	531.578
628.826	533.836
629.988	535.843
631.151	537.717
632.313	538.49
633.474	539.099
634.635	539.568
635.797	539.933
636.958	540.302
638.117	540.868
639.278	541.453
640.437	542.017
641.597	542.666
642.756	543.268
643.915	544.101
645.074	544.937
646.233	545.872
647.391	546.804
648.548	547.813
649.706	548.768
650.863	549.757
652.02	550.658
653.176	551.186
654.333	552.077
655.489	552.925
656.645	553.281
657.8	553.359
658.955	553.408
660.11	553.367
661.264	553.518
662.419	554.071
663.573	553.34
664.727	551.932
665.88	551.445
667.033	551.373
668.186	551.507
669.338	551.815
670.491	551.924
671.643	551.959
672.794	552.026
673.945	552.743
675.096	553.633
676.247	554.519
677.398	554.737
678.548	554.765
679.698	555.8
680.847	557.513
681.997	560.663
683.146	564.015
684.294	566.75
685.443	569.012
686.591	570.828
687.739	571.933
688.887	572.036
690.034	571.753
691.181	571.067
692.328	570.172
693.474	569.86
694.62	569.799
695.766	570.002
696.911	570.274
698.057	570.638
699.202	570.752
700.346	570.995
701.49	571.275
702.635	571.404
703.779	571.479
704.922	571.412
706.065	571.205
707.208	570.693
708.351	569.644
709.493	568.432
710.635	566.949
711.776	565.16
712.918	563.256
714.059	561.21
715.2	559.417
716.341	557.536
717.481	555.924
718.621	554.077
719.761	552.906
720.9	553.061
722.04	553.984
723.178	555.014
724.317	554.835
725.455	555.272
726.594	554.317
727.731	552.676
728.868	550.652
730.005	548.897
731.142	547.389
732.279	546.151
733.415	545.833
734.551	546.503
735.686	549.316
736.822	551.301
737.957	559.662
739.092	562.561
740.226	564.859
741.36	566.671
742.495	568.396
743.628	569.483
744.762	569.576
745.895	568.197
747.027	565.974
748.16	562.833
749.292	558.354
750.423	553.581
751.555	549.368
752.686	545.132
753.817	541.448
754.949	538.32
756.079	536.552
757.209	535.975
758.339	535.662
759.469	535.073
760.597	534.278
761.727	533.746
762.856	533.806
763.984	533.376
765.112	531.674
766.24	529.272
767.367	526.182
768.494	522.456
769.622	518.673
770.749	515.266
771.874	511.785
773.001	507.731
774.127	503.825
775.253	500.266
776.377	497.51
777.503	495.527
778.627	494.736
779.751	494.822
780.876	495.229
782	495.994
783.123	496.708
784.246	497.201
785.37	497.279
786.492	496.8
787.614	495.991
788.737	494.751
789.858	492.95
790.979	490.561
792.101	487.796
793.222	484.612
794.342	480.735
795.463	476.889
796.583	474.375
797.702	472.608
798.822	471.517
799.942	471.204
801.06	471.697
802.179	472.712
803.297	474.129
804.415	475.381
805.533	476.25
806.651	476.246
807.768	476.357
808.885	476.291
810.001	476.355
811.118	476.47
812.233	476.418
813.349	476.32
814.464	475.324
815.58	473.885
816.695	472.343
817.809	470.925
818.924	469.701
820.038	468.554
821.152	467.526
822.265	466.554
823.378	465.551
824.491	464.689
825.604	463.606
826.716	462.616
827.828	461.736
828.94	461.203
830.051	460.959
831.162	460.896
832.273	461.183
833.383	461.642
834.494	462.2
835.604	462.842
836.714	461.828
837.823	460.922
838.932	459.884
840.041	458.483
841.15	455.904
842.258	453.653
843.366	452.721
844.474	452.221
845.581	451.938
846.688	451.889
847.795	451.92
848.901	452.417
850.008	453.117
851.115	453.923
852.22	454.751
853.325	455.48
854.43	456.368
855.536	457.085
856.64	457.345
857.745	456.533
858.848	455.103
859.952	453.245
861.055	451.165
862.158	448.848
863.261	446.424
864.364	444.126
865.466	442.672
866.568	441.565
867.67	438.701
868.771	437.113
869.873	435.757
870.973	434.343
872.074	432.741
873.174	431.23
874.274	429.98
875.374	429.195
876.473	428.958
877.572	429.075
878.671	429.101
879.77	428.55
880.868	427.966
881.966	427.291
883.064	426.924
884.161	426.642
885.258	426.228
886.356	425.661
887.452	424.704
888.548	423.26
889.645	421.719
890.74	420.039
891.836	418.396
892.931	416.25
894.025	414.053
895.12	412.176
896.214	411.071
897.308	409.996
898.402	409.249
899.495	408.681
900.588	408.35
901.681	408.456
902.774	409.05
903.866	410.4
904.958	411.789
906.05	412.718
907.142	413.046
908.233	413.283
909.324	414.03
910.414	415.324
911.504	416.347
912.594	416.386
913.684	414.823
914.774	417.35
915.863	420.753
916.952	423.032
918.041	424.458
919.129	424.688
920.217	423.646
921.305	421.745
922.392	418.598
923.48	415.836
924.567	413.041
925.653	410.324
926.74	407.237
927.825	404.15
928.911	402.159
929.997	400.548
931.082	399.082
932.166	397.622
933.252	396.325
934.336	395.275
935.42	394.38
936.504	394.107
937.587	390.747
938.671	386.856
939.753	387.843
940.836	385.623
941.919	381.05
943	377.486
944.082	375.242
945.163	373.893
946.245	373.287
947.326	373.391
948.406	374.01
949.487	375.089
950.567	376.517
951.647	378.889
952.727	381.024
953.805	382.264
954.885	382.929
955.964	383.104
957.042	382.758
958.12	382.024
959.198	380.893
960.276	379.554
961.352	378.284
962.43	376.468
963.507	375.066
964.583	374.336
965.659	373.85
966.735	374.548
967.81	373.992
968.885	373.074
969.961	370.715
971.036	368.426
972.11	366.224
973.184	364.406
974.258	362.894
975.332	361.671
976.405	360.912
977.478	360.639
978.551	361.011
979.624	361.995
980.696	363.636
981.767	365.918
982.839	369.179
983.911	371.891
984.982	374.203
986.052	376.054
987.123	376.394
988.193	377.56
989.263	378.64
990.333	379.465
991.403	379.727
992.471	379.248
993.54	378.428
994.608	377.187
995.677	375.649
996.745	374.022
997.812	372.585
998.88	370.894
999.947	368.951
1001.01	372.762
1002.08	382.504
1003.15	347.195
1004.21	371.646
1005.28	372.153
1006.34	369.18
1007.41	369.514
1008.47	360.26
1009.54	351.376
1010.6	350.741
1011.67	356.64
1012.73	347.187
1013.79	348.762
1014.86	346.908
1015.92	345.02
1016.98	343.145
1018.05	340.928
1019.11	338.564
1020.17	336.273
1021.23	334.218
1022.29	332.46
1023.35	330.993
1024.41	329.793
1025.47	328.843
1026.53	328.329
1027.59	328.61
1028.65	328.895
1029.71	328.674
1030.77	328.523
1031.83	328.459
1032.89	328.333
1033.95	328.08
1035	327.679
1036.06	327.078
1037.12	326.349
1038.18	324.797
1039.23	323.038
1040.29	321.308
1041.35	320.064
1042.4	319.628
1043.46	319.336
1044.51	319.215
1045.57	319.204
1046.62	319.248
1047.68	319.227
1048.73	319.164
1049.79	318.974
1050.84	318.743
1051.89	318.618
1052.95	318.506
1054	318.421
1055.05	318.383
1056.1	318.338
1057.16	318.347
1058.21	318.395
1059.26	318.543
1060.31	317.251
1061.36	316.39
1062.41	317.627
1063.46	319.183
1064.51	320.54
1065.56	321.26
1066.61	321.468
1067.66	320.385
1068.71	319.17
1069.76	318.282
1070.81	314.323
1071.85	311.201
1072.9	307.535
1073.95	306.234
1075	310.286
1076.04	310.453
1077.09	310.042
1078.14	309.277
1079.18	308.292
1080.23	307.309
1081.27	306.163
1082.32	304.854
1083.36	303.346
1084.41	300.537
1085.45	299.893
1086.5	299.507
1087.54	299.046
1088.59	298.675
1089.63	298.411
1090.67	298.214
1091.71	298.111
1092.76	298.087
1093.8	298.124
1094.84	298.213
1095.88	298.307
1096.92	298.684
1097.97	299.142
1099.01	299.585
1100.05	300.008
1101.09	300.257
1102.13	299.711
1103.17	299.209
1104.21	298.674
1105.25	298.073
1106.28	297.55
1107.32	296.644
1108.36	297.948
1109.4	300.107
1110.44	302.139
1111.47	301.521
1112.51	300.732
1113.55	300.075
1114.59	299.763
1115.62	299.784
1116.66	298.572
1117.69	296.978
1118.73	295.304
1119.77	292.509
1120.8	290.658
1121.84	290.538
1122.87	288.352
1123.9	285.875
1124.94	282.928
1125.97	280.344
1127	278.324
1128.04	276.779
1129.07	276.05
1130.1	276.03
1131.13	276.567
1132.17	277.689
1133.2	279.29
1134.23	281.819
1135.26	284.775
1136.29	288.011
1137.32	291.115
1138.35	294.368
1139.38	297.459
1140.41	300.318
1141.44	302.362
1142.47	303.611
1143.5	305.961
1144.53	307.212
1145.56	308.276
1146.59	309.704
1147.61	311.282
1148.64	312.785
1149.67	314.237
1150.7	315.561
1151.72	316.501
1152.75	317.452
1153.77	318.18
1154.8	318.391
1155.83	317.652
1156.85	316.386
1157.88	314.899
1158.9	313.014
1159.93	310.314
1160.95	305.673
1161.97	300.768
1163	296.247
1164.02	291.974
1165.04	287.628
1166.07	283.275
1167.09	279.341
1168.11	275.918
1169.13	273.478
1170.16	271.737
1171.18	270.956
1172.2	270.96
1173.22	272.101
1174.24	272.949
1175.26	274.134
1176.28	275.947
1177.3	278.783
1178.32	281.761
1179.34	284.457
1180.36	286.714
1181.38	288.735
1182.4	290.696
1183.41	292.478
1184.43	292.897
1185.45	292.774
1186.47	292.247
1187.48	291.343
1188.5	290.409
1189.52	288.984
1190.53	287.099
1191.55	284.625
1192.56	281.226
1193.58	277.357
1194.59	273.109
1195.61	269.852
1196.62	267.198
1197.64	265.2
1198.65	263.91
1199.67	263.208
1200.68	263.417
1201.69	264.144
1202.71	263.202
1203.72	262.826
1204.73	263.459
1205.74	264.855
1206.76	266.463
1207.77	268.526
1208.78	269.892
1209.79	269.575
1210.8	268.329
1211.81	266.857
1212.82	265.363
1213.83	264.224
1214.84	263.28
1215.85	262.491
1216.86	261.957
1217.87	261.657
1218.88	261.592
1219.88	261.972
1220.89	262.635
1221.9	263.511
1222.91	264.66
1223.92	265.369
1224.92	265.392
1225.93	266.669
1226.93	266.857
1227.94	266.023
1228.95	264.788
1229.95	263.233
1230.96	261.353
1231.96	259.241
1232.97	257.173
1233.97	254.938
1234.98	252.512
1235.98	250.103
1236.98	247.554
1237.99	244.867
1238.99	242.303
1239.99	240.752
1241	239.515
1242	238.561
1243	237.484
1244	236.884
1245	236.356
1246	235.971
1247.01	235.665
1248.01	235.434
1249.01	235.226
1250.01	235.08
1251.01	234.92
1252.01	234.808
1253	234.627
1254	234.398
1255	234.156
1256	233.822
1257	233.696
1258	233.685
1258.99	233.728
1259.99	234.158
1260.99	234.505
1261.99	234.756
1262.98	234.692
1263.98	234.829
1264.98	234.683
1265.97	232.943
1266.97	230.811
1267.96	228.676
1268.96	226.838
1269.95	226.513
1270.95	226.247
1271.94	226.218
1272.93	226.336
1273.93	226.454
1274.92	225.199
1275.91	224.201
1276.91	223.492
1277.9	222.921
1278.89	222.633
1279.88	222.596
1280.87	222.804
1281.87	223.335
1282.86	224.355
1283.85	227.019
1284.84	229.623
1285.83	230.529
1286.82	230.742
1287.81	230.38
1288.8	229.604
1289.79	228.42
1290.78	226.968
1291.76	225.302
1292.75	223.403
1293.74	221.499
1294.73	219.552
1295.72	217.442
1296.7	215.67
1297.69	215.006
1298.68	214.592
1299.66	214.623
1300.65	215.018
1301.64	215.561
1302.62	216.277
1303.61	216.898
1304.59	218.055
1305.58	219.084
1306.56	220.097
1307.55	220.944
1308.53	221.289
1309.51	221.41
1310.5	221.129
1311.48	220.179
1312.46	219.023
1313.45	218.022
1314.43	217.261
1315.41	217.136
1316.39	215.495
1317.38	213.665
1318.36	213.266
1319.34	213.906
1320.32	215.24
1321.3	217.215
1322.28	219.774
1323.26	222.736
1324.24	225.874
1325.22	229.333
1326.2	231.335
1327.18	232.512
1328.16	232.58
1329.13	231.467
1330.11	229.231
1331.09	224.942
1332.07	222.415
1333.04	220.07
1334.02	217.222
1335	214.448
1335.97	211.867
1336.95	209.706
1337.93	208.328
1338.9	207.256
1339.88	206.627
1340.85	205.013
1341.83	204.006
1342.8	203.442
1343.78	203.365
1344.75	203.462
1345.72	204.025
1346.7	204.468
1347.67	203.496
1348.65	202.4
1349.62	201.087
1350.59	199.616
1351.56	198.923
1352.53	198.857
1353.51	198.96
1354.48	198.655
1355.45	197.928
1356.42	197.014
1357.39	195.869
1358.36	194.913
1359.33	194.064
1360.3	193.476
1361.27	192.947
1362.24	192.409
1363.21	191.654
1364.18	190.749
1365.14	189.957
1366.11	189.423
1367.08	189.306
1368.05	189.5
1369.02	189.772
1369.98	189.977
1370.95	190.012
1371.92	189.926
1372.88	189.733
1373.85	189.386
1374.81	189.124
1375.78	188.969
1376.74	189.008
1377.71	189.132
1378.68	189.168
1379.64	189.349
1380.6	188.859
1381.57	188.223
1382.53	187.578
1383.49	186.917
1384.46	186.449
1385.42	186.223
1386.38	186.211
1387.34	186.241
1388.31	186.441
1389.27	186.706
1390.23	186.996
1391.19	187.395
1392.15	187.673
1393.11	188.089
1394.07	188.413
1395.03	187.891
1395.99	186.478
1396.95	185.025
1397.91	183.984
1398.87	182.855
1399.83	182.148
1400.79	181.413
1401.75	178.709
1402.7	175.317
1403.66	173.533
1404.62	172.772
1405.58	172.746
1406.53	173.413
1407.49	174.155
1408.45	174.688
1409.4	175.057
1410.36	175.321
1411.31	175.596
1412.27	175.73
1413.23	175.732
1414.18	175.282
1415.13	171.26
1416.09	169.671
1417.04	168.415
1418	167.713
1418.95	167.46
1419.9	167.631
1420.86	168.172
1421.81	169.012
1422.76	170.229
1423.71	172.086
1424.67	174.197
1425.62	174.157
1426.57	173.439
1427.52	173.252
1428.47	173.239
1429.42	173.482
1430.37	173.943
1431.32	174.602
1432.27	175.694
1433.22	177.019
1434.17	178.438
1435.12	180.701
1436.07	182.562
1437.02	182.099
1437.96	181.571
1438.91	181.005
1439.86	180.383
1440.81	179.73
1441.75	179.088
1442.7	178.441
1443.65	177.743
1444.59	177.187
1445.54	176.359
1446.49	175.549
1447.43	174.709
1448.38	172.212
1449.32	169.585
1450.27	167.998
1451.21	167.01
1452.15	166.579
1453.1	166.475
1454.04	166.627
1454.98	166.851
1455.93	166.86
1456.87	166.928
1457.81	166.866
1458.76	166.698
1459.7	165.776
1460.64	164.834
1461.58	163.593
1462.52	162.374
1463.46	161.425
1464.4	160.622
1465.34	160.294
1466.28	160.184
1467.22	160.219
1468.16	159.538
1469.1	159.108
1470.04	158.705
1470.98	158.489
1471.92	158.317
1472.86	158.268
1473.8	158.28
1474.73	158.281
1475.67	158.334
1476.61	158.254
1477.55	158.174
1478.48	158.072
1479.42	158.02
1480.36	157.907
1481.29	157.616
1482.23	157.364
1483.16	156.803
1484.1	156.812
1485.03	156.884
1485.97	157.456
1486.9	157.894
1487.84	158.242
1488.77	158.416
1489.7	158.46
1490.64	158.515
1491.57	158.415
1492.5	158.266
1493.44	158.056
1494.37	157.799
1495.3	157.576
1496.23	157.299
1497.16	157.085
1498.09	156.617
1499.02	155.669
1499.96	154.721
1500.89	153.846
1501.82	153.053
1502.75	152.657
1503.68	152.525
1504.61	152.529
1505.53	152.738
1506.46	153.136
1507.39	153.815
1508.32	154.795
1509.25	155.973
1510.18	157.503
1511.1	159.29
1512.03	160.905
1512.96	162.812
1513.88	165.236
1514.81	168.121
1515.74	170.769
1516.66	171.781
1517.59	174.541
1518.51	177.835
1519.44	181.464
1520.36	185.091
1521.29	188.59
1522.21	191.881
1523.14	194.675
1524.06	196.762
1524.98	198.154
1525.91	200.198
1526.83	200.656
1527.75	200.473
1528.68	199.499
1529.6	198.144
1530.52	195.124
1531.44	191.752
1532.36	188.282
1533.29	185.105
1534.21	182.077
1535.13	179.137
1536.05	176.402
1536.97	173.765
1537.89	170.982
1538.81	168.129
1539.73	165.336
1540.65	161.542
1541.56	157.869
1542.48	154.457
1543.4	152.012
1544.32	149.948
1545.24	148.415
1546.16	147.193
1547.07	146.537
1547.99	146.339
1548.91	146.416
1549.82	146.747
1550.74	146.231
1551.66	145.154
1552.57	144.096
1553.49	143.12
1554.4	142.133
1555.32	141.231
1556.23	140.327
1557.15	139.447
1558.06	138.668
1558.97	137.931
1559.89	137.227
1560.8	136.526
1561.71	135.92
1562.63	135.257
1563.54	134.794
1564.45	134.415
1565.36	134.034
1566.28	133.557
1567.19	131.812
1568.1	130.086
1569.01	130.234
1569.92	129.725
1570.83	128.985
1571.74	128.498
1572.65	127.859
1573.56	127.052
1574.47	126.648
1575.38	126.422
1576.29	126.297
1577.2	126.19
1578.11	126.117
1579.01	125.991
1579.92	125.935
1580.83	125.911
1581.74	125.563
1582.64	125.133
1583.55	124.634
1584.46	123.988
1585.36	123.387
1586.27	122.91
1587.18	123.055
1588.08	124.067
1588.99	124.307
1589.89	124.535
1590.8	124.91
1591.7	125.436
1592.61	126.011
1593.51	126.609
1594.41	127.2
1595.32	127.907
1596.22	127.937
1597.12	128.288
1598.03	128.977
1598.93	129.575
1599.83	130.231
1600.73	130.572
1601.64	130.854
1602.54	131.17
1603.44	131.389
1604.34	131.597
1605.24	131.789
1606.14	131.757
1607.04	131.584
1607.94	131.254
1608.84	130.741
1609.74	130.358
1610.64	129.99
1611.54	129.424
1612.44	128.53
1613.33	127.797
1614.23	127.121
1615.13	126.679
1616.03	125.398
1616.92	124.803
1617.82	124.487
1618.72	124.093
1619.61	123.393
1620.51	123.058
1621.41	123.52
1622.3	123.781
1623.2	123.768
1624.09	123.45
1624.99	123.208
1625.88	123.214
1626.78	123.272
1627.67	123.175
1628.57	122.945
1629.46	122.616
1630.35	122.04
1631.25	121.348
1632.14	120.852
1632.85	120.855
1633.78	120.638
1634.71	120.421
1635.64	119.609
1636.57	118.928
1637.5	118.267
1638.42	118.173
1639.35	117.828
1640.28	117.764
1641.21	117.098
1642.13	116.426
1643.06	116.097
1643.99	115.577
1644.91	115.229
1645.84	114.803
1646.77	114.469
1647.69	114.18
1648.62	113.697
1649.54	113.513
1650.47	113.717
1651.39	113.938
1652.32	114.738
1653.24	115.56
1654.17	116.23
1655.09	116.78
1656.01	117.035
1656.94	116.895
1657.86	116.882
1658.78	116.917
1659.71	116.997
1660.63	115.838
1661.55	114.668
1662.47	112.777
1663.4	111.764
1664.32	111.104
1665.24	110.365
1666.16	110.11
1667.08	110.239
1668	110.549
1668.92	111.055
1669.84	111.838
1670.76	113.402
1671.68	114.139
1672.6	114.28
1673.52	113.611
1674.44	113.145
1675.36	112.282
1676.28	112.182
1677.2	111.834
1678.12	111.863
1679.03	111.383
1679.95	110.728
1680.87	109.954
1681.79	109.205
1682.7	108.889
1683.62	108.976
1684.54	109.229
1685.45	109.698
1686.37	109.711
1687.29	109.19
1688.2	108.83
1689.12	108.282
1690.03	108.12
1690.95	108.315
1691.86	108.587
1692.78	108.302
1693.69	107.824
1694.61	107.105
1695.52	106.402
1696.43	105.954
1697.35	104.488
1698.26	103.24
1699.17	102.125
1700.09	101.712
1701	101.246
1701.91	101.246
1702.82	101.162
1703.74	101.125
1704.65	101.115
1705.56	101.023
1706.47	100.924
1707.38	100.702
1708.29	100.278
1709.2	99.6883
1710.11	99.1816
1711.02	99.0137
1711.93	98.7464
1712.84	98.4065
1713.75	97.8462
1714.66	97.4416
1715.57	97.2532
1716.48	96.9461
1717.39	96.8983
1718.3	96.9923
1719.21	97.3953
1720.11	96.9895
1721.02	96.628
1721.93	96.1178
1722.84	95.9544
1723.74	95.7414
1724.65	95.4327
1725.56	95.4887
1726.46	95.4515
1727.37	95.2786
1728.28	95.355
1729.18	96.0599
1730.09	96.4436
1730.99	96.3934
1731.9	95.4558
1732.8	94.6304
1733.71	93.9348
1734.61	93.4692
1735.52	93.3942
1736.42	93.6938
1737.32	94.7839
1738.23	95.6865
1739.13	96.5006
1740.03	97.382
1740.94	97.1635
1741.84	97.0689
1742.74	97.1652
1743.64	96.9969
1744.54	97.3221
1745.45	97.4409
1746.35	97.081
1747.25	95.9494
1748.15	94.6978
1749.05	93.1906
1749.95	91.0943
1750.85	89.9843
1751.75	89.611
1752.65	89.5901
1753.55	90.1087
1754.45	90.9145
1755.35	91.9422
1756.25	92.8516
1757.15	92.1793
1758.05	91.2217
1758.94	90.9244
1759.84	90.7976
1760.74	90.8278
1761.64	90.7034
1762.53	90.5318
1763.43	90.5737
1764.33	90.5899
1765.23	90.3908
1766.12	90.3588
1767.02	90.456
1767.91	90.5219
1768.81	91.0237
1769.71	91.3865
1770.6	91.0618
1771.5	90.6074
1772.39	89.7882
1773.29	89.6993
1774.18	89.6719
1775.07	89.8666
1775.97	90.4641
1776.86	91.3699
1777.76	91.0629
1778.65	90.6614
1779.54	90.2043
1780.44	89.2214
1781.33	88.5045
1782.22	87.812
1783.11	87.0895
1784.01	87.0571
1784.9	87.185
1785.79	87.4505
1786.68	87.9458
1787.57	88.0716
1788.46	87.4397
1789.35	87.4433
1790.24	87.486
1791.13	86.99
1792.02	86.5593
1792.91	86.6808
1793.8	87.602
1794.69	88.4123
1795.58	88.7173
1796.47	88.7053
1797.36	88.4303
1798.25	87.5345
1799.14	85.3742
