Acq. time (s)=	15
Accumulations=	2
Range (cm-¹)=	600...1800
Windows=	2
Autofocus=	Off
AutoExposure=	Off
Spike filter=	Multiple accum.
Delay time (s)=	1
Binning=	1
Readout mode=	Signal
DeNoise=	Standard
ICS correction=	Off
Dark correction=	Off
Inst. Process=	Off
Instrument=	XploRA
Detector=	Syncerity
Objective=	x20LWD
Grating=	1200 gr/mm
Filter=	25%
Laser (nm)=	785 
Slit (µm)=	100 
Hole (µm)=	300 
Laser pol=	None
Raman pol=	None
Output=	Camera
StageXY=	Marzhauser
StageZ=	
X (µm)=	-2070
Y (µm)=	-563.8
Project=	
Sample=	
Site=	
Title=	Cmm1 s-t
Remark=	
Date=	22.07.2022 02:11
Acquired=	22.07.2022 02:11:36
600.839	400.808
602.009	404.306
603.178	408.25
604.347	413.263
605.516	417.647
606.684	421.624
607.852	424.718
609.02	426.563
610.187	428.139
611.355	429.992
612.521	430.865
613.688	432.328
614.854	433.467
616.02	434.91
617.185	436.637
618.351	438.053
619.516	439.383
620.681	440.395
621.846	441.108
623.009	442.315
624.174	443.452
625.337	444.806
626.501	445.553
627.664	446.819
628.826	446.722
629.988	446.541
631.151	445.945
632.313	445.386
633.474	443.499
634.635	443.096
635.797	442.254
636.958	442.488
638.117	441.711
639.278	441.096
640.437	440.413
641.597	441.036
642.756	440.741
643.915	439.648
645.074	439.274
646.233	439.803
647.391	440.852
648.548	441.029
649.706	440.808
650.863	440.867
652.02	441.141
653.176	441.491
654.333	442.642
655.489	444.286
656.645	445.776
657.8	447.326
658.955	449.098
660.11	450.154
661.264	451.382
662.419	452.572
663.573	452.591
664.727	453.584
665.88	453.224
667.033	452.941
668.186	453.151
669.338	452.564
670.491	450.887
671.643	449.18
672.794	447.87
673.945	447.331
675.096	447.911
676.247	448.396
677.398	449.976
678.548	451.43
679.698	452.48
680.847	452.825
681.997	453.632
683.146	454.469
684.294	454.765
685.443	454.236
686.591	454.28
687.739	454.825
688.887	455.045
690.034	454.641
691.181	454.047
692.328	452.993
693.474	451.758
694.62	449.605
695.766	448.388
696.911	448.149
698.057	447.158
699.202	446.694
700.346	447.388
701.49	447.766
702.635	448.133
703.779	449.002
704.922	450.334
706.065	452.187
707.208	453.516
708.351	454.413
709.493	454.742
710.635	454.979
711.776	454.841
712.918	453.955
714.059	451.811
715.2	449.598
716.341	447.713
717.481	445.388
718.621	443.864
719.761	442.741
720.9	441.06
722.04	439.776
723.178	438.762
724.317	437.848
725.455	437.835
726.594	438.475
727.731	439.222
728.868	440.745
730.005	441.01
731.142	439.696
732.279	439.026
733.415	439.317
734.551	439.944
735.686	441.066
736.822	442.342
737.957	444.44
739.092	447.244
740.226	449.064
741.36	450.625
742.495	451.333
743.628	451.123
744.762	450.705
745.895	449.727
747.027	448.963
748.16	447.992
749.292	446.234
750.423	445.357
751.555	444.084
752.686	442.839
753.817	444.121
754.949	442.552
756.079	440.38
757.209	438.424
758.339	436.334
759.469	435.368
760.597	433.454
761.727	431.415
762.856	428.267
763.984	426.002
765.112	424.076
766.24	422.221
767.367	420.281
768.494	418.474
769.622	417.135
770.749	415.599
771.874	414.765
773.001	413.839
774.127	412.847
775.253	411.893
776.377	410.947
777.503	409.583
778.627	408.572
779.751	407.467
780.876	406.262
782	404.402
783.123	402.64
784.246	400.391
785.37	397.925
786.492	396.476
787.614	395.265
788.737	393.741
789.858	392.824
790.979	392.242
792.101	392.243
793.222	392.287
794.342	392.872
795.463	392.643
796.583	391.672
797.702	390.687
798.822	390.146
799.942	388.449
801.06	386.063
802.179	384.439
803.297	382.126
804.415	380.526
805.533	378.82
806.651	378.046
807.768	377.569
808.885	376.615
810.001	375.078
811.118	374.506
812.233	373.976
813.349	374.138
814.464	373.946
815.58	372.908
816.695	372.327
817.809	371.447
818.924	371.559
820.038	372.12
821.152	373.051
822.265	373.631
823.378	374.362
824.491	374.984
825.604	375.006
826.716	375.235
827.828	375.265
828.94	375.82
830.051	375.563
831.162	375.418
832.273	375.777
833.383	375.888
834.494	374.404
835.604	372.516
836.714	371.9
837.823	370.988
838.932	371.269
840.041	372.386
841.15	372.816
842.258	376.219
843.366	375.467
844.474	374.548
845.581	370.758
846.688	365.468
847.795	362.614
848.901	360.509
850.008	359.362
851.115	359.273
852.22	359.535
853.325	361.439
854.43	363.348
855.536	363.225
856.64	363.199
857.745	361.038
858.848	358.25
859.952	355.788
861.055	355.761
862.158	355.236
863.261	353.869
864.364	352.181
865.466	351.312
866.568	350.161
867.67	349.098
868.771	347.516
869.873	346.28
870.973	344.913
872.074	344.335
873.174	343.548
874.274	343.297
875.374	342.991
876.473	342.69
877.572	342.187
878.671	341.016
879.77	339.491
880.868	337.599
881.966	336.673
883.064	336.641
884.161	336.283
885.258	336.639
886.356	337.202
887.452	338.494
888.548	338.814
889.645	338.9
890.74	338.963
891.836	339.465
892.931	339.399
894.025	339.49
895.12	339.525
896.214	339.695
897.308	338.066
898.402	336.269
899.495	334.575
900.588	332.646
901.681	331.213
902.774	330.864
903.866	330.826
904.958	330.999
906.05	330.588
907.142	330.025
908.233	328.751
909.324	327.734
910.414	327.271
911.504	326.096
912.594	325.208
913.684	324.681
914.774	324.077
915.863	323.492
916.952	323.516
918.041	323.357
919.129	323.305
920.217	323.522
921.305	323.261
922.392	322.545
923.48	321.919
924.567	321.41
925.653	320.2
926.74	318.983
927.825	317.572
928.911	315.401
929.997	312.838
931.082	310.91
932.166	308.545
933.252	305.733
934.336	303.421
935.42	301.716
936.504	300.23
937.587	299.675
938.671	300.214
939.753	300.506
940.836	301.023
941.919	301.479
943	302.104
944.082	302.614
945.163	303.769
946.245	303.871
947.326	302.994
948.406	302.446
949.487	301.95
950.567	301.156
951.647	300.112
952.727	299.144
953.805	298.134
954.885	296.787
955.964	295.826
957.042	295.398
958.12	294.692
959.198	294.143
960.276	294.306
961.352	293.873
962.43	293.252
963.507	293.062
964.583	292.2
965.659	291.427
966.735	290.637
967.81	290.462
968.885	290.263
969.961	290.668
971.036	291.417
972.11	292.188
973.184	292.774
974.258	294.414
975.332	295.684
976.405	296.611
977.478	296.613
978.551	295.737
979.624	296.262
980.696	296.962
981.767	298.785
982.839	300.046
983.911	301.071
984.982	301.589
986.052	301.077
987.123	300.294
988.193	299.655
989.263	298.551
990.333	296.9
991.403	294.945
992.471	293.149
993.54	291.675
994.608	290.629
995.677	289.984
996.745	290.102
997.812	289.57
998.88	289.425
999.947	289.643
1001.01	293.351
1002.08	294.681
1003.15	295.442
1004.21	295.519
1005.28	295.242
1006.34	294.427
1007.41	292.376
1008.47	289.928
1009.54	288.14
1010.6	285.904
1011.67	283.065
1012.73	280.942
1013.79	278.764
1014.86	276.855
1015.92	276.005
1016.98	274.657
1018.05	273.488
1019.11	271.832
1020.17	270.165
1021.23	268.803
1022.29	267.568
1023.35	266.987
1024.41	266.402
1025.47	265.646
1026.53	264.556
1027.59	262.861
1028.65	260.956
1029.71	259.5
1030.77	259.443
1031.83	257.27
1032.89	255.212
1033.95	254.139
1035	254.222
1036.06	255.183
1037.12	256.345
1038.18	257.604
1039.23	259.42
1040.29	261.039
1041.35	262.362
1042.4	262.154
1043.46	261.622
1044.51	260.547
1045.57	260.239
1046.62	261.271
1047.68	261.335
1048.73	261.207
1049.79	260.69
1050.84	260.339
1051.89	259.423
1052.95	258.154
1054	256.616
1055.05	255.294
1056.1	254.648
1057.16	253.32
1058.21	252.574
1059.26	251.567
1060.31	250.953
1061.36	250.531
1062.41	250.142
1063.46	249.763
1064.51	249.817
1065.56	249.891
1066.61	250.802
1067.66	251.422
1068.71	252.048
1069.76	252.277
1070.81	251.463
1071.85	250.775
1072.9	248.768
1073.95	246.564
1075	244.165
1076.04	242.29
1077.09	240.895
1078.14	239.238
1079.18	238.874
1080.23	238.542
1081.27	237.493
1082.32	237.392
1083.36	237.42
1084.41	237.772
1085.45	237.926
1086.5	239.252
1087.54	240.479
1088.59	241.977
1089.63	243.018
1090.67	243.706
1091.71	243.554
1092.76	242.926
1093.8	242.167
1094.84	241.106
1095.88	240.326
1096.92	239.529
1097.97	238.947
1099.01	239.085
1100.05	239.301
1101.09	239.417
1102.13	239.849
1103.17	240.425
1104.21	241.059
1105.25	241.248
1106.28	241.72
1107.32	241.83
1108.36	241.991
1109.4	241.15
1110.44	240.079
1111.47	238.707
1112.51	237.862
1113.55	235.95
1114.59	234.932
1115.62	233.524
1116.66	232.078
1117.69	231.055
1118.73	230.045
1119.77	229.086
1120.8	228.29
1121.84	227.517
1122.87	227.331
1123.9	227.397
1124.94	227.053
1125.97	226.552
1127	226.935
1128.04	227.44
1129.07	228.245
1130.1	228.412
1131.13	228.889
1132.17	229.727
1133.2	230.657
1134.23	231.238
1135.26	231.952
1136.29	232.773
1137.32	234.056
1138.35	234.62
1139.38	235.174
1140.41	236.913
1141.44	238.125
1142.47	239.022
1143.5	239.86
1144.53	240.439
1145.56	240.937
1146.59	241.418
1147.61	242.584
1148.64	244.04
1149.67	245.832
1150.7	248.234
1151.72	252.345
1152.75	254.629
1153.77	256.856
1154.8	257.723
1155.83	257.017
1156.85	256.075
1157.88	254.984
1158.9	253.238
1159.93	250.811
1160.95	246.858
1161.97	243.222
1163	239.231
1164.02	234.438
1165.04	230.46
1166.07	226.183
1167.09	222.734
1168.11	220.08
1169.13	217.661
1170.16	215.85
1171.18	214.976
1172.2	214.377
1173.22	214.504
1174.24	215.419
1175.26	216.203
1176.28	217.147
1177.3	218.376
1178.32	219.842
1179.34	220.99
1180.36	222.689
1181.38	224.646
1182.4	226.516
1183.41	228.684
1184.43	230.922
1185.45	234.32
1186.47	236.004
1187.48	236.485
1188.5	236.676
1189.52	236.023
1190.53	233.758
1191.55	231.828
1192.56	229.72
1193.58	227.695
1194.59	225.203
1195.61	221.702
1196.62	218.699
1197.64	215.311
1198.65	212.416
1199.67	210.196
1200.68	208.698
1201.69	207.639
1202.71	207.341
1203.72	208.042
1204.73	207.284
1205.74	206.924
1206.76	206.904
1207.77	207.196
1208.78	207.719
1209.79	209.027
1210.8	210.269
1211.81	211.361
1212.82	212.712
1213.83	213.615
1214.84	214.031
1215.85	214.024
1216.86	213.436
1217.87	213.179
1218.88	212.194
1219.88	211.43
1220.89	210.631
1221.9	210.083
1222.91	210.188
1223.92	210.032
1224.92	209.047
1225.93	207.507
1226.93	205.734
1227.94	204.103
1228.95	202.23
1229.95	201.046
1230.96	199.781
1231.96	198.731
1232.97	198.116
1233.97	196.745
1234.98	194.872
1235.98	192.962
1236.98	191.133
1237.99	190.124
1238.99	189.309
1239.99	187.876
1241	187.255
1242	186.82
1243	186.315
1244	185.347
1245	184.162
1246	183.126
1247.01	182.425
1248.01	182.018
1249.01	181.767
1250.01	182.46
1251.01	182.769
1252.01	182.715
1253	182.688
1254	183.051
1255	183.609
1256	184.105
1257	185.2
1258	185.971
1258.99	186.317
1259.99	186.479
1260.99	186.656
1261.99	186.191
1262.98	185.263
1263.98	184.42
1264.98	184.055
1265.97	183.215
1266.97	182.182
1267.96	181.243
1268.96	180.065
1269.95	178.949
1270.95	178.101
1271.94	177.626
1272.93	177.066
1273.93	176.657
1274.92	176.509
1275.91	176.763
1276.91	177.461
1277.9	177.9
1278.89	178.655
1279.88	179.62
1280.87	180.521
1281.87	181.266
1282.86	181.686
1283.85	182.403
1284.84	182.905
1285.83	183.06
1286.82	182.939
1287.81	182.711
1288.8	181.902
1289.79	180.977
1290.78	180.02
1291.76	179.071
1292.75	178.089
1293.74	176.829
1294.73	175.554
1295.72	174.91
1296.7	175.232
1297.69	176.592
1298.68	179.431
1299.66	180.771
1300.65	180.646
1301.64	179.298
1302.62	176.202
1303.61	173.068
1304.59	164.327
1305.58	162.787
1306.56	163.904
1307.55	168.154
1308.53	169.79
1309.51	170.609
1310.5	170.437
1311.48	169.84
1312.46	170.001
1313.45	169.801
1314.43	168.8
1315.41	168.529
1316.39	169.378
1317.38	170.472
1318.36	172.023
1319.34	173.984
1320.32	176.163
1321.3	178.455
1322.28	180.666
1323.26	182.794
1324.24	184.771
1325.22	186.39
1326.2	188.178
1327.18	188.971
1328.16	189.43
1329.13	189.268
1330.11	188.519
1331.09	186.531
1332.07	185.14
1333.04	182.137
1334.02	178.147
1335	174.434
1335.97	170.978
1336.95	168.378
1337.93	166.505
1338.9	164.964
1339.88	164.014
1340.85	163.252
1341.83	162.712
1342.8	161.934
1343.78	161.817
1344.75	161.845
1345.72	161.974
1346.7	161.838
1347.67	161.62
1348.65	161.566
1349.62	161.418
1350.59	161.439
1351.56	160.991
1352.53	160.278
1353.51	159.188
1354.48	157.499
1355.45	156.179
1356.42	155.671
1357.39	155.311
1358.36	155.329
1359.33	156.051
1360.3	156.637
1361.27	156.794
1362.24	156.649
1363.21	156.273
1364.18	155.929
1365.14	155.396
1366.11	155.221
1367.08	155.2
1368.05	155.361
1369.02	155.114
1369.98	155.041
1370.95	154.169
1371.92	153.455
1372.88	152.858
1373.85	151.959
1374.81	151.573
1375.78	151.13
1376.74	151.087
1377.71	151.128
1378.68	151.196
1379.64	151.015
1380.6	149.742
1381.57	148.768
1382.53	148.169
1383.49	147.084
1384.46	146.446
1385.42	146.062
1386.38	145.516
1387.34	145.336
1388.31	144.554
1389.27	144.236
1390.23	144.408
1391.19	144.902
1392.15	144.99
1393.11	144.871
1394.07	144.706
1395.03	144.788
1395.99	144.847
1396.95	144.622
1397.91	144.217
1398.87	143.289
1399.83	141.647
1400.79	140.205
1401.75	138.618
1402.7	137.231
1403.66	136.538
1404.62	135.306
1405.58	134.508
1406.53	134.195
1407.49	133.986
1408.45	134.274
1409.4	134.631
1410.36	135.021
1411.31	135.303
1412.27	135.761
1413.23	137.073
1414.18	138.643
1415.13	139.258
1416.09	140.17
1417.04	140.4
1418	140.283
1418.95	139.949
1419.9	139.491
1420.86	138.289
1421.81	137.345
1422.76	136.709
1423.71	136.122
1424.67	136.469
1425.62	136.791
1426.57	137.012
1427.52	137.606
1428.47	138.106
1429.42	139.173
1430.37	140.953
1431.32	141.959
1432.27	143.098
1433.22	143.751
1434.17	143.489
1435.12	143.997
1436.07	144.344
1437.02	144.214
1437.96	144.349
1438.91	144.29
1439.86	144.328
1440.81	143.896
1441.75	143.383
1442.7	142.649
1443.65	141.76
1444.59	139.419
1445.54	137.924
1446.49	136.893
1447.43	136.55
1448.38	136.484
1449.32	136.515
1450.27	136.128
1451.21	135.967
1452.15	136.084
1453.1	135.584
1454.04	135.065
1454.98	134.92
1455.93	134.766
1456.87	134.123
1457.81	133.326
1458.76	131.924
1459.7	130.126
1460.64	128.172
1461.58	125.471
1462.52	124.026
1463.46	122.78
1464.4	122.128
1465.34	121.562
1466.28	121.784
1467.22	122.438
1468.16	123.222
1469.1	123.943
1470.04	124.929
1470.98	125.578
1471.92	125.91
1472.86	126.022
1473.8	126.234
1474.73	126.187
1475.67	125.601
1476.61	124.619
1477.55	123.886
1478.48	123.483
1479.42	123.513
1480.36	123.477
1481.29	123.546
1482.23	124.028
1483.16	124.615
1484.1	125.125
1485.03	125.788
1485.97	126.689
1486.9	127.379
1487.84	127.998
1488.77	128.346
1489.7	128.705
1490.64	129.13
1491.57	129.104
1492.5	129.51
1493.44	129.308
1494.37	129.345
1495.3	129.098
1496.23	128.594
1497.16	128.162
1498.09	127.084
1499.02	126.11
1499.96	125.057
1500.89	124.354
1501.82	123.57
1502.75	123.385
1503.68	123.743
1504.61	124.415
1505.53	125.326
1506.46	126.266
1507.39	127.032
1508.32	127.803
1509.25	128.128
1510.18	129.16
1511.1	130.198
1512.03	131.227
1512.96	132.346
1513.88	133.882
1514.81	135.647
1515.74	137.033
1516.66	138.83
1517.59	140.663
1518.51	143.289
1519.44	146.239
1520.36	149.196
1521.29	152.262
1522.21	154.88
1523.14	156.691
1524.06	157.711
1524.98	158.625
1525.91	158.552
1526.83	158.186
1527.75	157.865
1528.68	157.776
1529.6	156.544
1530.52	155.166
1531.44	152.931
1532.36	150.501
1533.29	148.432
1534.21	146.112
1535.13	144.153
1536.05	141.937
1536.97	140.404
1537.89	138.259
1538.81	135.9
1539.73	133.037
1540.65	130.563
1541.56	128.226
1542.48	126.329
1543.4	124.996
1544.32	122.249
1545.24	120.742
1546.16	120.524
1547.07	120.82
1547.99	121.331
1548.91	121.818
1549.82	122.261
1550.74	123.119
1551.66	123.729
1552.57	123.989
1553.49	123.975
1554.4	123.027
1555.32	121.91
1556.23	120.119
1557.15	119.166
1558.06	118.086
1558.97	116.683
1559.89	115.448
1560.8	114.315
1561.71	112.868
1562.63	111.545
1563.54	110.637
1564.45	110.263
1565.36	109.754
1566.28	109.673
1567.19	109.571
1568.1	109.924
1569.01	110.998
1569.92	111.778
1570.83	112.388
1571.74	112.738
1572.65	112.469
1573.56	112.188
1574.47	111.751
1575.38	111.328
1576.29	110.536
1577.2	109.691
1578.11	109.127
1579.01	108.881
1579.92	108.796
1580.83	108.574
1581.74	108.062
1582.64	107.571
1583.55	107.195
1584.46	106.866
1585.36	106.144
1586.27	105.818
1587.18	105.742
1588.08	106.103
1588.99	106.617
1589.89	107.374
1590.8	107.909
1591.7	108.722
1592.61	109.844
1593.51	111.166
1594.41	111.745
1595.32	112.591
1596.22	113.386
1597.12	114.102
1598.03	114.697
1598.93	115.145
1599.83	114.997
1600.73	114.733
1601.64	114.622
1602.54	114.657
1603.44	114.681
1604.34	114.829
1605.24	115.2
1606.14	115.669
1607.04	115.749
1607.94	115.289
1608.84	114.66
1609.74	114.171
1610.64	113.483
1611.54	112.494
1612.44	111.811
1613.33	111.592
1614.23	111.317
1615.13	111.045
1616.03	110.817
1616.92	110.882
1617.82	111.097
1618.72	111.037
1619.61	110.776
1620.51	110.582
1621.41	110.09
1622.3	109.769
1623.2	109.55
1624.09	109.473
1624.99	109.514
1625.88	109.622
1626.78	109.524
1627.67	109.241
1628.57	108.879
1629.46	108.62
1630.35	108.649
1631.25	108.562
1632.14	108.636
1632.85	108.639
1633.78	108.417
1634.71	108.809
1635.64	109.266
1636.57	108.823
1637.5	107.262
1638.42	105.856
1639.35	104.991
1640.28	104.295
1641.21	103.606
1642.13	106.654
1643.06	106.545
1643.99	106.639
1644.91	106.89
1645.84	106.986
1646.77	106.739
1647.69	106.937
1648.62	107.147
1649.54	107.394
1650.47	107.311
1651.39	106.857
1652.32	106.896
1653.24	106.805
1654.17	106.456
1655.09	105.871
1656.01	105.546
1656.94	105.474
1657.86	105.339
1658.78	105.312
1659.71	106.119
1660.63	106.976
1661.55	107.598
1662.47	107.652
1663.4	107.413
1664.32	107.289
1665.24	107.362
1666.16	106.517
1667.08	105.697
1668	105.186
1668.92	104.567
1669.84	103.892
1670.76	103.651
1671.68	103.053
1672.6	102.818
1673.52	103.017
1674.44	103.885
1675.36	104.44
1676.28	104.763
1677.2	105.198
1678.12	105.465
1679.03	105.89
1679.95	106.201
1680.87	106.334
1681.79	106.262
1682.7	105.668
1683.62	104.779
1684.54	104.205
1685.45	103.995
1686.37	103.76
1687.29	103.73
1688.2	103.465
1689.12	103.067
1690.03	102.798
1690.95	102.787
1691.86	102.3
1692.78	101.982
1693.69	101.172
1694.61	100.925
1695.52	100.839
1696.43	101.185
1697.35	101.243
1698.26	100.866
1699.17	100.771
1700.09	99.729
1701	98.3599
1701.91	97.2832
1702.82	96.7112
1703.74	96.4399
1704.65	96.4765
1705.56	96.7736
1706.47	96.7193
1707.38	96.9448
1708.29	97.0071
1709.2	97.0942
1710.11	97.2136
1711.02	97.0043
1711.93	96.8414
1712.84	96.6348
1713.75	96.3138
1714.66	95.2841
1715.57	94.2299
1716.48	92.1318
1717.39	94.7568
1718.3	94.3121
1719.21	94.3691
1720.11	94.2643
1721.02	95.2866
1721.93	95.124
1722.84	94.8392
1723.74	94.5265
1724.65	94.3943
1725.56	93.9579
1726.46	93.3894
1727.37	92.7657
1728.28	92.0628
1729.18	91.8371
1730.09	92.2941
1730.99	92.5165
1731.9	92.6619
1732.8	92.2161
1733.71	92.3153
1734.61	92.6129
1735.52	92.9261
1736.42	93.5683
1737.32	94.2822
1738.23	94.4734
1739.13	94.7081
1740.03	95.0593
1740.94	94.7109
1741.84	94.2302
1742.74	94.0468
1743.64	93.5325
1744.54	93.4479
1745.45	93.5981
1746.35	93.4466
1747.25	93.2827
1748.15	93.0914
1749.05	92.5862
1749.95	92.4465
1750.85	92.2456
1751.75	92.5415
1752.65	92.5815
1753.55	92.817
1754.45	92.891
1755.35	92.3721
1756.25	91.9296
1757.15	91.5362
1758.05	91.0211
1758.94	90.3014
1759.84	89.4958
1760.74	88.4194
1761.64	87.5711
1762.53	86.8781
1763.43	86.8179
1764.33	86.9435
1765.23	87.5885
1766.12	87.9897
1767.02	88.0162
1767.91	88.0646
1768.81	87.9479
1769.71	88.2028
1770.6	88.4372
1771.5	88.641
1772.39	88.973
1773.29	89.1324
1774.18	89.0037
1775.07	88.5511
1775.97	88.0819
1776.86	87.9481
1777.76	87.5972
1778.65	87.2618
1779.54	87.252
1780.44	87.1126
1781.33	86.411
1782.22	85.6592
1783.11	85.2219
1784.01	84.6871
1784.9	84.1913
1785.79	83.7305
1786.68	83.3066
1787.57	82.9665
1788.46	82.9886
1789.35	82.9795
1790.24	82.7994
1791.13	82.9984
1792.02	82.9387
1792.91	82.5883
1793.8	82.4351
1794.69	82.8608
1795.58	83.1568
1796.47	82.9484
1797.36	81.1837
1798.25	79.398
1799.14	78.8343
