Acq. time (s)=	15
Accumulations=	2
Range (cm-¹)=	600...1800
Windows=	2
Autofocus=	Off
AutoExposure=	Off
Spike filter=	Multiple accum.
Delay time (s)=	1
Binning=	1
Readout mode=	Signal
DeNoise=	Standard
ICS correction=	Off
Dark correction=	Off
Inst. Process=	Off
Instrument=	XploRA
Detector=	Syncerity
Objective=	x20LWD
Grating=	1200 gr/mm
Filter=	25%
Laser (nm)=	785 
Slit (µm)=	100 
Hole (µm)=	300 
Laser pol=	None
Raman pol=	None
Output=	Camera
StageXY=	Marzhauser
StageZ=	
X (µm)=	-7805.3
Y (µm)=	4193.5
Project=	
Sample=	
Site=	
Title=	T1
Remark=	
Date=	27.10.2021 15:09
Operator=	
Power=	
Acquired=	27.10.2021 15:09:26
600.089	559.582
601.257	552.758
602.426	555.288
603.594	558.632
604.763	563.114
605.93	568.441
607.098	574.551
608.264	579.892
609.431	583.723
610.598	584.564
611.764	588.637
612.93	591.369
614.096	594.123
615.261	596.789
616.426	598.692
617.591	601.629
618.756	601.07
619.92	601.832
621.084	602.739
622.247	604.273
623.411	605.729
624.574	606.992
625.736	607.848
626.899	608.664
628.061	609.263
629.223	609.727
630.385	609.928
631.546	609.93
632.706	609.531
633.867	610.464
635.028	608.18
636.188	606.258
637.348	605.088
638.507	604.545
639.667	604.703
640.826	605.089
641.984	605.914
643.142	606.503
644.3	604.536
645.458	602.321
646.616	600.12
647.773	598.137
648.93	597.269
650.086	596.651
651.243	595.435
652.399	594.431
653.555	593.778
654.71	593.59
655.865	593.234
657.02	594.125
658.174	594.398
659.329	594.335
660.483	593.804
661.637	592.901
662.79	591.598
663.944	590.262
665.096	588.221
666.249	586.862
667.401	585.789
668.552	584.644
669.705	584.2
670.856	585.56
672.007	587.385
673.158	589.121
674.308	591.107
675.458	593.658
676.609	596.305
677.757	597.894
678.907	599.263
680.057	600.745
681.205	601.368
682.353	601.779
683.502	601.031
684.649	599.568
685.797	597.424
686.944	594.719
688.091	591.738
689.238	590.073
690.385	588.502
691.53	587.122
692.676	586.178
693.822	585.994
694.967	586.17
696.112	587.29
697.257	588.08
698.401	588.326
699.545	588.017
700.689	587.194
701.832	585.811
702.975	584.034
704.119	581.347
705.261	579.665
706.403	576.857
707.546	575.349
708.688	573.016
709.829	569.932
710.97	568.868
712.11	567.24
713.252	565.675
714.392	563.969
715.532	563.628
716.672	564.941
717.811	565.697
718.95	564.407
720.089	563.304
721.227	563.17
722.366	562.776
723.504	562.479
724.642	561.082
725.779	560.003
726.916	558.374
728.053	557.848
729.19	558.226
730.326	559.504
731.462	561.493
732.597	564.149
733.733	567.266
734.868	568.778
736.003	570.094
737.137	571.281
738.272	572.299
739.405	573.246
740.539	573.834
741.672	574.075
742.805	573.856
743.938	572.451
745.071	570.703
746.203	568.9
747.335	568.147
748.467	567.352
749.598	566.248
750.728	564.273
751.86	561.914
752.99	559.137
754.12	555.959
755.25	552.622
756.38	549.236
757.509	546.697
758.638	543.412
759.767	540.125
760.896	536.847
762.023	533.989
763.152	531.86
764.279	529.887
765.406	526.62
766.533	524.182
767.66	522.043
768.786	520.476
769.912	519.511
771.038	519.068
772.164	519.448
773.289	519.175
774.414	517.275
775.539	515.556
776.664	513.855
777.787	512.378
778.911	511.117
780.035	510.059
781.158	509.079
782.281	508.181
783.404	507.022
784.526	504.669
785.648	502.654
786.77	500.763
787.891	498.61
789.013	495.577
790.134	492.836
791.254	490.286
792.374	488.421
793.494	486.738
794.614	485.342
795.734	483.828
796.853	482.205
797.973	480.518
799.091	478.853
800.21	477.29
801.327	475.856
802.445	474.548
803.563	473.443
804.68	472.524
805.797	471.909
806.914	471.749
808.03	470.256
809.146	469.669
810.262	469.889
811.377	470.914
812.492	472.714
813.608	472.908
814.722	472.945
815.836	472.305
816.95	471.074
818.064	470.171
819.177	469.377
820.291	468.806
821.404	468.912
822.517	473.037
823.628	474.864
824.741	473.815
825.852	473.347
826.964	472.252
828.075	470.421
829.186	468.216
830.297	464.931
831.407	459.621
832.517	458.051
833.627	457.551
834.736	459.069
835.846	459.427
836.954	459.256
838.063	458.97
839.171	459.15
840.279	459.782
841.387	460.158
842.494	460.362
843.602	460.233
844.709	460.2
845.815	459.8
846.922	459.007
848.028	456.778
849.134	455.854
850.239	455.009
851.344	454.209
852.449	453.255
853.554	452.072
854.658	450.849
855.762	449.378
856.865	447.845
857.969	446.194
859.073	444.674
860.175	442.444
861.278	440.253
862.38	438.138
863.482	436.018
864.584	433.996
865.686	431.925
866.787	430.241
867.887	429.992
868.988	429.69
870.088	428.084
871.189	426.692
872.288	425.623
873.387	425.011
874.487	423.088
875.586	420.83
876.684	418.758
877.783	417.055
878.881	416.102
879.979	415.637
881.076	415.625
882.173	415.897
883.27	415.637
884.366	415.221
885.463	414.723
886.559	414.357
887.655	414.218
888.75	414.301
889.845	414.335
890.94	414.299
892.035	414.075
893.13	413.359
894.223	412.385
895.318	410.809
896.411	409.31
897.504	408.596
898.597	408.433
899.69	408.72
900.782	409.397
901.874	410.077
902.966	410.816
904.057	411.641
905.148	412.4
906.239	412.959
907.33	413.501
908.42	414
909.51	414.438
910.601	415.403
911.69	416.197
912.779	415.794
913.868	414.695
914.956	413.842
916.045	413.107
917.133	412.911
918.221	412.605
919.308	410.761
920.396	408.627
921.483	406.593
922.569	404.158
923.656	401.428
924.742	399.721
925.827	397.78
926.913	395.418
927.999	392.521
929.083	389.438
930.168	386.475
931.253	384.121
932.337	382.335
933.42	381.036
934.504	380.636
935.587	380.443
936.67	380.033
937.753	380.44
938.835	381.082
939.917	381.697
940.999	381.918
942.081	382.064
943.162	382.084
944.243	381.967
945.324	381.549
946.404	380.884
947.484	379.016
948.565	376.469
949.644	373.619
950.723	370.742
951.802	368.284
952.881	366.193
953.96	364.886
955.038	363.86
956.116	364.326
957.193	363.851
958.27	363.637
959.347	364.42
960.425	365.025
961.501	364.938
962.577	364.373
963.653	363.587
964.729	362.095
965.804	360.634
966.879	359.209
967.954	358.1
969.029	357.34
970.102	356.942
971.177	356.847
972.25	357.032
973.324	357.484
974.397	358.336
975.469	359.477
976.542	360.693
977.614	360.715
978.686	360.518
979.758	360.816
980.83	361.295
981.9	361.835
982.972	362.548
984.042	363.736
985.112	364.73
986.182	364.975
987.252	365.07
988.321	365.099
989.39	365.17
990.46	365.4
991.528	365.885
992.596	366.762
993.664	368.171
994.732	369.104
995.8	369.896
996.867	369.245
997.934	368.548
999	367.484
1000.07	365.834
1001.13	363.243
1002.2	361.43
1003.26	359.763
1004.33	358.192
1005.39	355.745
1006.46	351.192
1007.52	346.075
1008.59	341.519
1009.65	337.483
1010.71	334.117
1011.78	331.09
1012.84	328.531
1013.9	326.378
1014.97	324.667
1016.03	323.42
1017.09	322.364
1018.15	321.623
1019.21	321.467
1020.27	322.183
1021.33	320.891
1022.39	319.894
1023.46	319.098
1024.51	318.384
1025.57	317.692
1026.63	317.542
1027.69	317.14
1028.75	316.371
1029.81	314.621
1030.87	312.322
1031.93	310.376
1032.98	309.023
1034.04	308.823
1035.1	309.541
1036.15	310.588
1037.21	311.74
1038.27	312.663
1039.32	314.508
1040.38	316.306
1041.44	317.886
1042.49	319.24
1043.55	320.175
1044.6	320.733
1045.65	320.954
1046.71	320.852
1047.76	320.289
1048.82	319.47
1049.87	318.254
1050.92	316.764
1051.97	315.087
1053.03	313.084
1054.08	311.039
1055.13	309.238
1056.18	308.303
1057.23	307.835
1058.28	307.45
1059.33	307.029
1060.38	306.583
1061.44	306.167
1062.48	305.614
1063.53	305.074
1064.58	304.471
1065.63	303.928
1066.68	303.265
1067.73	302.497
1068.78	301.716
1069.83	300.9
1070.87	300.027
1071.92	299.096
1072.97	298.07
1074.01	297.067
1075.06	296.061
1076.11	295.047
1077.15	294.077
1078.2	293.143
1079.24	292.281
1080.29	291.421
1081.33	290.767
1082.38	290.105
1083.42	289.655
1084.47	289.223
1085.51	288.656
1086.55	287.214
1087.6	286.11
1088.64	285.731
1089.68	285.611
1090.72	285.596
1091.77	285.585
1092.81	285.679
1093.85	285.966
1094.89	286.518
1095.93	286.742
1096.97	286.045
1098.01	285.645
1099.05	285.594
1100.09	285.632
1101.13	285.862
1102.17	286.157
1103.21	286.597
1104.25	287.248
1105.29	288.153
1106.33	289.178
1107.36	290.003
1108.4	289.624
1109.44	287.881
1110.48	285.784
1111.51	284.257
1112.55	283.534
1113.58	283.9
1114.62	285.457
1115.66	285.079
1116.69	282.872
1117.73	280.677
1118.76	278.513
1119.8	276.751
1120.83	274.954
1121.86	270.046
1122.9	268.539
1123.93	268.748
1124.96	270.867
1126	275.41
1127.03	275.39
1128.06	275.764
1129.1	276.511
1130.13	277.812
1131.16	280.045
1132.19	282.24
1133.22	279.804
1134.25	278.008
1135.28	277.533
1136.31	279.119
1137.34	279.488
1138.37	283.638
1139.4	287.531
1140.43	294.722
1141.46	299.303
1142.49	300.654
1143.51	301.218
1144.54	301.132
1145.57	295.949
1146.6	294.228
1147.62	292.997
1148.65	302.853
1149.68	306.935
1150.7	313.456
1151.73	320.331
1152.76	323.964
1153.78	325.39
1154.81	325.705
1155.83	323.133
1156.85	320.329
1157.88	315.103
1158.9	310.194
1159.93	305.463
1160.95	298.949
1161.97	291.901
1163	285.852
1164.02	280.503
1165.04	275.912
1166.06	271.952
1167.09	268.892
1168.11	266.906
1169.13	266.819
1170.15	265.15
1171.17	264.554
1172.19	265.572
1173.21	267.912
1174.23	269.685
1175.25	271.635
1176.27	273.38
1177.29	275.122
1178.31	277.273
1179.33	279.914
1180.34	282.54
1181.36	284.439
1182.38	285.21
1183.4	285.011
1184.41	283.855
1185.43	281.988
1186.45	279.549
1187.46	276.465
1188.48	273.14
1189.5	269.731
1190.51	266.569
1191.53	263.676
1192.54	261.065
1193.56	259.24
1194.57	257.739
1195.59	255.15
1196.6	252.715
1197.61	250.817
1198.63	249.068
1199.64	247.698
1200.65	246.693
1201.66	245.756
1202.68	244.055
1203.69	242.939
1204.7	242.575
1205.71	242.904
1206.72	243.815
1207.73	245.166
1208.74	246.819
1209.75	248.513
1210.76	250.352
1211.77	251.988
1212.78	253.424
1213.79	254.522
1214.8	255.432
1215.81	255.364
1216.82	255.039
1217.83	254.625
1218.84	254.302
1219.84	253.965
1220.85	253.575
1221.86	253.24
1222.86	252.823
1223.87	252.488
1224.88	252.203
1225.88	251.831
1226.89	251.34
1227.89	250.299
1228.9	248.981
1229.9	246.745
1230.91	245.432
1231.91	243.939
1232.92	242.179
1233.92	240.31
1234.92	238.19
1235.93	235.977
1236.93	233.719
1237.93	231.39
1238.93	229.18
1239.94	226.701
1240.94	224.347
1241.94	222.202
1242.94	220.636
1243.94	219.175
1244.94	218.089
1245.94	217.352
1246.94	217.4
1247.94	217.722
1248.94	217.927
1249.94	218.109
1250.94	218.148
1251.94	218.114
1252.94	217.98
1253.94	217.845
1254.93	217.629
1255.93	217.373
1256.93	217.311
1257.93	217.177
1258.92	217.161
1259.92	217.048
1260.92	217.049
1261.91	216.965
1262.91	216.958
1263.9	216.957
1264.9	216.876
1265.89	216.741
1266.89	216.482
1267.88	216.215
1268.88	215.276
1269.87	214.361
1270.87	213.274
1271.86	212.611
1272.85	212.661
1273.85	212.781
1274.84	213.08
1275.83	213.538
1276.82	214.097
1277.81	214.68
1278.8	215.471
1279.8	216.35
1280.79	217.367
1281.78	218.621
1282.77	219.716
1283.76	220.493
1284.75	220.259
1285.74	219.682
1286.73	218.612
1287.72	217.168
1288.71	215.291
1289.69	213.002
1290.68	210.735
1291.67	208.775
1292.66	207.473
1293.64	206.406
1294.63	205.875
1295.62	205.604
1296.61	205.478
1297.59	205.449
1298.58	205.434
1299.56	205.333
1300.55	205.356
1301.53	205.441
1302.52	205.486
1303.5	205.655
1304.49	205.913
1305.47	205.955
1306.46	205.317
1307.44	203.745
1308.42	202.561
1309.41	201.744
1310.39	200.841
1311.37	200.145
1312.35	199.619
1313.34	199.771
1314.32	199.88
1315.3	198.625
1316.28	197.528
1317.26	198.32
1318.24	198.64
1319.22	200.407
1320.2	202.918
1321.18	206.134
1322.16	209.629
1323.14	213.313
1324.12	216.95
1325.1	220.358
1326.08	223.103
1327.06	223.839
1328.03	222.074
1329.01	217.468
1329.99	214.806
1330.97	212.166
1331.94	209.518
1332.92	206.907
1333.9	204.449
1334.87	201.747
1335.85	199.216
1336.82	196.971
1337.8	194.702
1338.77	192.149
1339.75	190.55
1340.72	188.271
1341.7	187.505
1342.67	186.707
1343.64	186.164
1344.62	185.999
1345.59	186.388
1346.56	187.107
1347.54	187.915
1348.51	187.474
1349.48	186.429
1350.45	185.527
1351.42	184.692
1352.39	183.923
1353.37	183.344
1354.34	182.72
1355.31	182.594
1356.28	182.455
1357.25	182.426
1358.22	182.399
1359.19	182.406
1360.16	182.437
1361.12	182.387
1362.09	182.323
1363.06	181.499
1364.03	180.706
1365	179.744
1365.96	178.836
1366.93	178.012
1367.9	177.316
1368.86	177.07
1369.83	176.522
1370.8	175.671
1371.76	174.999
1372.73	175.57
1373.69	176.098
1374.66	175.885
1375.62	175.13
1376.59	174.288
1377.55	173.626
1378.52	173.326
1379.48	173.072
1380.44	172.963
1381.41	172.731
1382.37	172.601
1383.33	172.525
1384.3	172.68
1385.26	173.094
1386.22	173.858
1387.18	174.727
1388.14	175.604
1389.1	176.093
1390.06	176.044
1391.02	175.699
1391.98	175.185
1392.94	174.041
1393.9	172.312
1394.86	170.509
1395.82	168.795
1396.78	167.392
1397.74	166.306
1398.7	165.092
1399.66	163.995
1400.61	162.97
1401.57	162.121
1402.53	162.156
1403.49	162.401
1404.44	162.892
1405.4	163.448
1406.36	164.028
1407.31	164.082
1408.27	163.93
1409.22	163.881
1410.18	163.979
1411.13	164.071
1412.09	164.143
1413.04	164.107
1414	163.916
1414.95	163.538
1415.9	162.927
1416.86	162.055
1417.81	161.05
1418.76	159.83
1419.72	158.863
1420.67	158.236
1421.62	157.793
1422.57	157.419
1423.52	157.133
1424.47	156.451
1425.42	156.401
1426.38	156.9
1427.33	157.741
1428.28	158.775
1429.23	160.179
1430.18	161.542
1431.12	162.811
1432.07	164
1433.02	164.945
1433.97	165.816
1434.92	166.515
1435.87	167.029
1436.82	167.519
1437.76	167.854
1438.71	168.122
1439.66	168.209
1440.6	168.221
1441.55	168.067
1442.5	167.864
1443.44	167.494
1444.39	166.994
1445.33	166.354
1446.28	165.522
1447.22	164.589
1448.17	163.292
1449.11	161.875
1450.06	159.959
1451	158.374
1451.94	157.302
1452.89	155.881
1453.83	154.381
1454.77	153.165
1455.71	152.212
1456.66	151.855
1457.6	152.275
1458.54	152.804
1459.48	153.391
1460.42	153.883
1461.36	154.314
1462.3	154.672
1463.24	154.925
1464.18	155.136
1465.12	154.341
1466.06	153.698
1467	153.059
1467.94	152.506
1468.88	151.975
1469.82	151.507
1470.76	151.08
1471.69	150.743
1472.63	150.484
1473.57	150.27
1474.51	150.143
1475.44	150.062
1476.38	150.094
1477.32	150.152
1478.25	150.309
1479.19	150.518
1480.12	150.758
1481.06	151.07
1481.99	151.473
1482.93	151.97
1483.86	152.505
1484.8	153.132
1485.73	153.799
1486.67	154.502
1487.6	155.129
1488.53	154.695
1489.47	154.147
1490.4	153.354
1491.33	152.512
1492.26	151.488
1493.19	149.982
1494.13	148.347
1495.06	147.871
1495.99	147.087
1496.92	146.377
1497.85	146.098
1498.78	146.535
1499.71	147.615
1500.64	147.251
1501.57	147.051
1502.5	147.266
1503.43	147.877
1504.36	149.623
1505.28	150.158
1506.21	150.007
1507.14	149.715
1508.07	150.156
1509	151.411
1509.92	153.152
1510.85	155.253
1511.78	157.593
1512.7	160.287
1513.63	163.333
1514.55	166.731
1515.48	170.503
1516.4	174.594
1517.33	179.051
1518.25	183.885
1519.18	189.21
1520.1	192.819
1521.03	195.673
1521.95	196.921
1522.87	200.257
1523.8	202.55
1524.72	204.058
1525.64	203.62
1526.57	202.626
1527.49	201.225
1528.41	199.321
1529.33	193.986
1530.25	187.967
1531.17	182.197
1532.1	177.089
1533.02	174.016
1533.94	170.597
1534.86	166.269
1535.78	163.066
1536.7	160.44
1537.61	158.316
1538.53	156.431
1539.45	154.838
1540.37	153.495
1541.29	152.328
1542.21	151.437
1543.12	150.728
1544.04	150.263
1544.96	149.798
1545.88	149.368
1546.79	149.048
1547.71	148.38
1548.63	147.586
1549.54	146.499
1550.46	145.293
1551.37	144.117
1552.29	142.781
1553.2	136.323
1554.12	139.948
1555.03	138.433
1555.95	136.88
1556.86	135.285
1557.77	133.686
1558.69	132.147
1559.6	130.541
1560.51	129.114
1561.42	127.822
1562.34	126.702
1563.25	125.541
1564.16	124.378
1565.07	123.352
1565.98	122.543
1566.89	121.873
1567.8	121.216
1568.71	120.71
1569.62	120.469
1570.53	120.102
1571.44	119.536
1572.35	118.58
1573.26	117.44
1574.17	116.303
1575.08	115.183
1575.99	114.159
1576.9	113.284
1577.8	112.51
1578.71	112.054
1579.62	111.78
1580.53	111.059
1581.43	110.541
1582.34	110.169
1583.25	109.956
1584.15	109.8
1585.06	109.9
1585.96	110.065
1586.87	110.085
1587.77	110.249
1588.68	110.33
1589.58	110.331
1590.49	110.185
1591.39	109.87
1592.29	109.655
1593.2	109.362
1594.1	109.014
1595	108.941
1595.91	108.959
1596.81	108.88
1597.71	108.993
1598.61	109.455
1599.51	110.183
1600.41	111.047
1601.32	111.718
1602.22	112.205
1603.12	112.441
1604.02	112.551
1604.92	112.464
1605.82	112.286
1606.72	111.21
1607.62	110.029
1608.51	108.444
1609.41	106.476
1610.31	104.967
1611.21	103.798
1612.11	102.968
1613.01	102.374
1613.9	101.859
1614.8	101.58
1615.7	101.378
1616.59	101.377
1617.49	101.556
1618.39	101.457
1619.28	100.896
1620.18	100.282
1621.07	99.8168
1621.97	99.5364
1622.86	99.3113
1623.76	98.9997
1624.65	98.4045
1625.55	97.5906
1626.44	97.0532
1627.33	96.244
1628.23	95.5358
1629.12	95.0833
1630.01	95.0611
1630.91	95.1521
1631.8	95.2287
1632.67	95.5814
1633.6	95.6191
1634.53	95.7721
1635.46	95.3162
1636.39	94.2178
1637.31	93.9638
1638.24	93.8109
1639.17	93.5681
1640.1	93.2168
1641.02	91.6846
1641.95	90.0128
1642.88	89.1019
1643.8	89.0977
1644.73	90.0768
1645.65	92.3152
1646.58	92.9079
1647.5	93.3903
1648.43	93.941
1649.35	94.0126
1650.28	93.6611
1651.2	93.819
1652.13	93.7105
1653.05	93.5658
1653.97	93.6996
1654.9	93.8606
1655.82	94.1171
1656.74	93.7056
1657.66	93.1963
1658.59	93.0136
1659.51	92.8465
1660.43	92.5654
1661.35	92.5438
1662.27	92.5567
1663.2	92.7144
1664.12	93.2341
1665.04	93.996
1665.96	94.7069
1666.88	95.3033
1667.8	95.6886
1668.72	96.119
1669.64	97.1086
1670.56	97.948
1671.48	98.3892
1672.4	99.1197
1673.31	99.5424
1674.23	99.4292
1675.15	98.9465
1676.07	98.4905
1676.99	98.2949
1677.9	97.7498
1678.82	97.3964
1679.74	97.1295
1680.66	96.3959
1681.57	95.6388
1682.49	94.9029
1683.41	94.421
1684.32	93.733
1685.24	92.888
1686.15	92.2806
1687.07	92.0395
1687.98	92.0149
1688.9	91.8619
1689.81	91.6664
1690.73	91.0243
1691.64	90.2913
1692.56	89.6237
1693.47	88.9678
1694.38	88.1518
1695.3	87.29
1696.21	86.7544
1697.12	86.3372
1698.04	86.1153
1698.95	85.9986
1699.86	86.1171
1700.77	86.4045
1701.68	87.4426
1702.6	87.7813
1703.51	87.5871
1704.42	87.0912
1705.33	86.7942
1706.24	86.1606
1707.15	85.0601
1708.06	83.5643
1708.97	83.0505
1709.88	82.8841
1710.79	80.0795
1711.7	82.1236
1712.61	83.3269
1713.52	83.2313
1714.43	83.2792
1715.33	83.2867
1716.24	83.7159
1717.15	82.3968
1718.06	81.0621
1718.97	79.573
1719.87	78.7644
1720.78	76.7585
1721.69	77.6184
1722.59	78.4688
1723.5	81.7681
1724.41	81.6559
1725.31	81.5905
1726.22	81.638
1727.12	81.8337
1728.03	81.9733
1728.93	79.4461
1729.84	78.0618
1730.74	78.9321
1731.65	79.6799
1732.55	79.9225
1733.46	80.5378
1734.36	81.5777
1735.26	82.3542
1736.17	81.8478
1737.07	81.6396
1737.97	81.6419
1738.87	81.539
1739.78	81.3727
1740.68	81.286
1741.58	81.2313
1742.48	80.8626
1743.38	80.6536
1744.29	80.4275
1745.19	79.2938
1746.09	78.6701
1746.99	78.4702
1747.89	78.8115
1748.79	79.5554
1749.69	80.2521
1750.59	80.4795
1751.49	80.0831
1752.39	79.6841
1753.29	79.2782
1754.18	78.8861
1755.08	78.4569
1755.98	78.2977
1756.88	78.9256
1757.78	80.5042
1758.67	83.3882
1759.57	83.0763
1760.47	82.4647
1761.37	79.5996
1762.26	77.4272
1763.16	76.818
1764.06	77.0579
1764.95	76.9593
1765.85	76.7379
1766.74	75.7529
1767.64	75.5512
1768.53	75.5115
1769.43	75.6233
1770.32	75.7546
1771.22	75.897
1772.11	76.2675
1773.01	76.6127
1773.9	76.8725
1774.79	75.7747
1775.69	74.3029
1776.58	73.2409
1777.47	71.8914
1778.37	70.6603
1779.26	69.8894
1780.15	69.1568
1781.04	68.2477
1781.93	67.7366
1782.83	67.4299
1783.72	67.3595
1784.61	67.7763
1785.5	68.1075
1786.39	68.5919
1787.28	68.7544
1788.17	68.8542
1789.06	69.2502
1789.95	69.7598
1790.84	70.248
1791.73	70.3224
1792.62	70.562
1793.51	71.2922
1794.4	72.0687
1795.28	72.6087
1796.17	73.1879
1797.06	73.0839
1797.95	71.822
1798.84	70.6982
1799.72	69.1595
