Acq. time (s)=	15
Accumulations=	2
Range (cm-¹)=	600...1800
Windows=	2
Autofocus=	Off
AutoExposure=	Off
Spike filter=	Multiple accum.
Delay time (s)=	1
Binning=	1
Readout mode=	Signal
DeNoise=	Standard
ICS correction=	Off
Dark correction=	Off
Inst. Process=	Off
Instrument=	XploRA
Detector=	Syncerity
Objective=	x20LWD
Grating=	1200 gr/mm
Filter=	25%
Laser (nm)=	785 
Slit (µm)=	100 
Hole (µm)=	300 
Laser pol=	None
Raman pol=	None
Output=	Camera
StageXY=	Marzhauser
StageZ=	
X (µm)=	-16300.6
Y (µm)=	8137.8
Project=	
Sample=	
Site=	
Title=	T1
Remark=	
Date=	27.10.2021 15:19
Operator=	
Power=	
Acquired=	27.10.2021 15:19:13
600.089	504.508
601.257	509.327
602.426	517.168
603.594	521.757
604.763	527.537
605.93	533.936
607.098	538.507
608.264	540.725
609.431	541.71
610.598	543.063
611.764	544.291
612.93	546.138
614.096	547.732
615.261	549.127
616.426	550.389
617.591	551.672
618.756	552.896
619.92	553.908
621.084	554.182
622.247	554.845
623.411	555.027
624.574	555.99
625.736	557.809
626.899	557.625
628.061	557.968
629.223	557.167
630.385	554.562
631.546	552.011
632.706	551.011
633.867	550.289
635.028	550.109
636.188	550.222
637.348	550.672
638.507	551.117
639.667	553.137
640.826	552.632
641.984	552.632
643.142	551.338
644.3	548.609
645.458	546.365
646.616	544.592
647.773	543.855
648.93	543.209
650.086	540.741
651.243	540.744
652.399	541.699
653.555	543.992
654.71	546.138
655.865	547.899
657.02	549.247
658.174	550.011
659.329	550.894
660.483	551.891
661.637	553.692
662.79	554.616
663.944	554.425
665.096	553.847
666.249	553.518
667.401	552.626
668.552	551.727
669.705	551.484
670.856	551.795
672.007	553.944
673.158	555.593
674.308	557.922
675.458	559.801
676.609	561.439
677.757	563.894
678.907	566.319
680.057	566.881
681.205	567.786
682.353	568.62
683.502	568.345
684.649	568.408
685.797	567.259
686.944	565.021
688.091	562.488
689.238	559.076
690.385	556.257
691.53	554.086
692.676	552.895
693.822	551.458
694.967	550.232
696.112	547.727
697.257	545.665
698.401	544.888
699.545	544.267
700.689	543.867
701.832	543.45
702.975	543.801
704.119	545.378
705.261	545.878
706.403	546.259
707.546	546.266
708.688	545.603
709.829	545.078
710.97	544.069
712.11	541.173
713.252	537.764
714.392	532.068
715.532	527.792
716.672	524.899
717.811	522.479
718.95	520.862
720.089	520.621
721.227	521.97
722.366	523.889
723.504	525.165
724.642	524.957
725.779	523.991
726.916	523.673
728.053	523.416
729.19	522.371
730.326	522.715
731.462	521.216
732.597	520.718
733.733	520.003
734.868	520.752
736.003	521.779
737.137	523.386
738.272	525.416
739.405	528.005
740.539	531.915
741.672	536.061
742.805	539.567
743.938	541.326
745.071	542.43
746.203	542.664
747.335	541.556
748.467	540.378
749.598	539.315
750.728	535.988
751.86	533.304
752.99	529.567
754.12	525.331
755.25	521.311
756.38	516.528
757.509	511.978
758.638	507.163
759.767	503.54
760.896	500.084
762.023	497.937
763.152	496.374
764.279	495.068
765.406	493.752
766.533	492.829
767.66	490.846
768.786	489.774
769.912	489.22
771.038	489.106
772.164	488.806
773.289	488.83
774.414	488.276
775.539	486.604
776.664	485.244
777.787	483.67
778.911	481.745
780.035	479.728
781.158	477.059
782.281	475.318
783.404	472.896
784.526	470.935
785.648	467.826
786.77	465.735
787.891	464.336
789.013	462.985
790.134	461.698
791.254	461.062
792.374	460.482
793.494	460.631
794.614	460.381
795.734	459.769
796.853	459.073
797.973	457.983
799.091	455.911
800.21	454.589
801.327	453.485
802.445	451.978
803.563	450.591
804.68	449.333
805.797	448.55
806.914	447.59
808.03	446.962
809.146	446.455
810.262	446.919
811.377	447.12
812.492	448.061
813.608	449.301
814.722	451.232
815.836	453.095
816.95	453.541
818.064	453.483
819.177	453.81
820.291	453.193
821.404	452.155
822.517	450.653
823.628	449.225
824.741	447.305
825.852	445.111
826.964	442.346
828.075	439.634
829.186	437.295
830.297	436.053
831.407	435.072
832.517	434.934
833.627	434.731
834.736	435.251
835.846	435.534
836.954	436.523
838.063	436.881
839.171	437.55
840.279	436.89
841.387	436.585
842.494	435.1
843.602	433.841
844.709	432.331
845.815	431.472
846.922	430.115
848.028	427.741
849.134	425.451
850.239	422.83
851.344	421.594
852.449	420.656
853.554	420.087
854.658	420.069
855.762	419.447
856.865	419.616
857.969	418.532
859.073	417.576
860.175	416.566
861.278	415.741
862.38	415.459
863.482	415.051
864.584	414.71
865.686	414.718
866.787	414.92
867.887	415.024
868.988	414.922
870.088	414.155
871.189	412.764
872.288	411.885
873.387	410.895
874.487	409.551
875.586	408.203
876.684	405.959
877.783	403.877
878.881	401.344
879.979	398.144
881.076	396.083
882.173	394.607
883.27	391.006
884.366	390.319
885.463	389.334
886.559	389.425
887.655	390.141
888.75	390.848
889.845	391.448
890.94	392.434
892.035	393.203
893.13	394.603
894.223	397.155
895.318	397.921
896.411	398.326
897.504	396.979
898.597	395.213
899.69	392.731
900.782	390.371
901.874	388.124
902.966	385.821
904.057	383.893
905.148	382.556
906.239	382.174
907.33	381.292
908.42	383.585
909.51	384.715
910.601	385.812
911.69	386.684
912.779	387.499
913.868	388.343
914.956	389.126
916.045	388.906
917.133	388.137
918.221	387.398
919.308	385.482
920.396	383.59
921.483	380.945
922.569	378.021
923.656	374.766
924.742	372.429
925.827	370.411
926.913	368.239
927.999	366.431
929.083	364.605
930.168	363.776
931.253	364.043
932.337	364.12
933.42	364.523
934.504	364.876
935.587	364.895
936.67	364.667
937.753	363.321
938.835	362.773
939.917	362.211
940.999	360.878
942.081	359.386
943.162	357.421
944.243	355.021
945.324	352.79
946.404	350.848
947.484	348.469
948.565	345.855
949.644	344.014
950.723	342.742
951.802	341.669
952.881	341.22
953.96	341.242
955.038	341.647
956.116	342.136
957.193	343.06
958.27	344.07
959.347	344.778
960.425	345.289
961.501	345.627
962.577	346.266
963.653	346.058
964.729	345.926
965.804	344.123
966.879	345.129
967.954	345.454
969.029	344.956
970.102	343.95
971.177	343.444
972.25	343.669
973.324	344.649
974.397	346.173
975.469	347.78
976.542	348.911
977.614	349.735
978.686	350.351
979.758	351.065
980.83	351.331
981.9	350.72
982.972	350.047
984.042	349.841
985.112	348.974
986.182	348.69
987.252	348.462
988.321	347.976
989.39	347.218
990.46	345.828
991.528	345.782
992.596	345.404
993.664	344.87
994.732	344.795
995.8	345.396
996.867	346.038
997.934	346.044
999	346.462
1000.07	346.432
1001.13	346.735
1002.2	347.116
1003.26	346.246
1004.33	344.367
1005.39	342.309
1006.46	340.03
1007.52	337.644
1008.59	335.106
1009.65	331.587
1010.71	327.518
1011.78	324.166
1012.84	321.739
1013.9	319.182
1014.97	316.775
1016.03	314.087
1017.09	311.859
1018.15	310.156
1019.21	307.805
1020.27	306.148
1021.33	304.759
1022.39	304.375
1023.46	303.347
1024.51	301.859
1025.57	299.963
1026.63	298.16
1027.69	296.014
1028.75	294.891
1029.81	294.631
1030.87	294.796
1031.93	295.51
1032.98	296.555
1034.04	297.575
1035.1	298.381
1036.15	299.049
1037.21	300.473
1038.27	301.551
1039.32	301.444
1040.38	300.948
1041.44	302.028
1042.49	301.872
1043.55	302.258
1044.6	301.113
1045.65	300.207
1046.71	298.631
1047.76	297.447
1048.82	296.994
1049.87	297.07
1050.92	296.941
1051.97	296.185
1053.03	295.908
1054.08	295.466
1055.13	294.046
1056.18	292.299
1057.23	291.215
1058.28	290.131
1059.33	288.47
1060.38	285.856
1061.44	284.844
1062.48	284.365
1063.53	283.811
1064.58	283.405
1065.63	283.585
1066.68	284.154
1067.73	284.903
1068.78	285.848
1069.83	287.268
1070.87	288.872
1071.92	290.572
1072.97	291.361
1074.01	291.906
1075.06	291.553
1076.11	290.08
1077.15	287.808
1078.2	285.769
1079.24	282.616
1080.29	280.976
1081.33	279.286
1082.38	278.479
1083.42	277.928
1084.47	277.255
1085.51	276.974
1086.55	276.205
1087.6	276.14
1088.64	275.796
1089.68	275.557
1090.72	275.93
1091.77	276.019
1092.81	275.43
1093.85	274.958
1094.89	274.493
1095.93	273.809
1096.97	272.928
1098.01	271.879
1099.05	270.367
1100.09	269.721
1101.13	269.68
1102.17	269.578
1103.21	269.778
1104.25	270.001
1105.29	270.722
1106.33	270.995
1107.36	269.22
1108.4	273.153
1109.44	275.353
1110.48	277.902
1111.51	270.304
1112.55	284.803
1113.58	284.595
1114.62	279.234
1115.66	283.629
1116.69	282.928
1117.73	273.827
1118.76	260.952
1119.8	262.622
1120.83	261.94
1121.86	262.695
1122.9	262.571
1123.93	260.943
1124.96	259.818
1126	257.6
1127.03	256.457
1128.06	255.833
1129.1	255.384
1130.13	256.45
1131.16	257.164
1132.19	258.779
1133.22	259.972
1134.25	262.284
1135.28	265.465
1136.31	270.327
1137.34	276.032
1138.37	280.173
1139.4	281.599
1140.43	283.008
1141.46	284.059
1142.49	285.134
1143.51	286.143
1144.54	287.147
1145.57	287.835
1146.6	288.422
1147.62	289.336
1148.65	291.407
1149.68	293.679
1150.7	296.176
1151.73	298.575
1152.76	301.062
1153.78	303.268
1154.81	305.716
1155.83	305.16
1156.85	303.654
1157.88	301.366
1158.9	298.39
1159.93	294.689
1160.95	290.508
1161.97	284.578
1163	277.929
1164.02	271.606
1165.04	266.209
1166.06	261.151
1167.09	257.367
1168.11	254.038
1169.13	252.215
1170.15	250.664
1171.17	250.725
1172.19	250.951
1173.21	252.246
1174.23	254.085
1175.25	256.365
1176.27	259.209
1177.29	262.317
1178.31	263.415
1179.33	264.28
1180.34	265.168
1181.36	266.057
1182.38	266.696
1183.4	266.765
1184.41	266.265
1185.43	265.355
1186.45	264.008
1187.46	262.446
1188.48	260.873
1189.5	258.111
1190.51	255.063
1191.53	254.295
1192.54	252.856
1193.56	251.098
1194.57	249.453
1195.59	248.069
1196.6	247.086
1197.61	245.988
1198.63	243.887
1199.64	241.796
1200.65	239.557
1201.66	238.086
1202.68	237.325
1203.69	239.508
1204.7	239.148
1205.71	239.319
1206.72	239.926
1207.73	240.571
1208.74	241.119
1209.75	241.577
1210.76	242.239
1211.77	242.633
1212.78	243.072
1213.79	243.207
1214.8	243.002
1215.81	243.44
1216.82	243.291
1217.83	242.509
1218.84	242.151
1219.84	241.96
1220.85	242.355
1221.86	242.52
1222.86	242.528
1223.87	241.959
1224.88	241.256
1225.88	240.825
1226.89	239.494
1227.89	237.946
1228.9	235.92
1229.9	233.529
1230.91	231.53
1231.91	229.057
1232.92	226.299
1233.92	223.727
1234.92	221.609
1235.93	219.808
1236.93	217.545
1237.93	215.624
1238.93	214.522
1239.94	213.782
1240.94	212.901
1241.94	211.514
1242.94	210.936
1243.94	210.544
1244.94	209.625
1245.94	208.78
1246.94	208.26
1247.94	208.254
1248.94	208.271
1249.94	208.393
1250.94	209.787
1251.94	211.19
1252.94	211.877
1253.94	212.532
1254.93	212.808
1255.93	213.004
1256.93	213.182
1257.93	213.743
1258.92	213.787
1259.92	213.2
1260.92	212.408
1261.91	211.27
1262.91	210.04
1263.9	208.788
1264.9	207.044
1265.89	205.235
1266.89	203.856
1267.88	203.173
1268.88	202.272
1269.87	201.184
1270.87	200.798
1271.86	200.349
1272.85	199.724
1273.85	198.853
1274.84	198.401
1275.83	197.776
1276.82	197.855
1277.81	198.111
1278.8	197.99
1279.8	197.713
1280.79	198.316
1281.78	199.876
1282.77	201.763
1283.76	203.691
1284.75	205.752
1285.74	208.214
1286.73	209.793
1287.72	209.446
1288.71	208.379
1289.69	207.389
1290.68	206.281
1291.67	205.315
1292.66	204.238
1293.64	202.976
1294.63	201.819
1295.62	200.257
1296.61	198.729
1297.59	197.287
1298.58	195.954
1299.56	194.812
1300.55	194.462
1301.53	194.871
1302.52	195.467
1303.5	195.469
1304.49	194.292
1305.47	193.142
1306.46	192.427
1307.44	192.199
1308.42	191.816
1309.41	191.779
1310.39	192.14
1311.37	192.354
1312.35	191.56
1313.34	191.994
1314.32	191.944
1315.3	190.166
1316.28	185.623
1317.26	188.202
1318.24	191.454
1319.22	195.836
1320.2	201.042
1321.18	207.163
1322.16	211.673
1323.14	214.388
1324.12	215.673
1325.1	215.842
1326.08	215.09
1327.06	213.54
1328.03	210.682
1329.01	207.52
1329.99	203.276
1330.97	199.418
1331.94	195.72
1332.92	192.321
1333.9	189.266
1334.87	186.54
1335.85	184.54
1336.82	184.495
1337.8	183.013
1338.77	181.848
1339.75	181.473
1340.72	181.96
1341.7	181.532
1342.67	181.186
1343.64	180.468
1344.62	179.361
1345.59	178.361
1346.56	177.484
1347.54	177.23
1348.51	177.747
1349.48	177.641
1350.45	177.986
1351.42	178.133
1352.39	178.548
1353.37	178.929
1354.34	178.928
1355.31	178.573
1356.28	178.294
1357.25	177.816
1358.22	176.946
1359.19	176.02
1360.16	174.611
1361.12	172.956
1362.09	171.396
1363.06	169.246
1364.03	167.803
1365	166.428
1365.96	165.457
1366.93	165.367
1367.9	165.349
1368.86	165.683
1369.83	166.234
1370.8	167.152
1371.76	166.789
1372.73	167.141
1373.69	167.233
1374.66	167.277
1375.62	167.739
1376.59	168.343
1377.55	168.846
1378.52	168.804
1379.48	168.7
1380.44	168.878
1381.41	169.218
1382.37	170.088
1383.33	171.523
1384.3	172.437
1385.26	173.254
1386.22	173.538
1387.18	173.802
1388.14	173.956
1389.1	173.85
1390.06	173.555
1391.02	173.166
1391.98	172.726
1392.94	172.083
1393.9	171.344
1394.86	170.502
1395.82	169.567
1396.78	168.544
1397.74	167.432
1398.7	166.06
1399.66	164.642
1400.61	163.192
1401.57	161.732
1402.53	160.305
1403.49	159.279
1404.44	159.137
1405.4	159.039
1406.36	159.072
1407.31	159.09
1408.27	158.756
1409.22	157.754
1410.18	155.918
1411.13	154.849
1412.09	154.261
1413.04	153.811
1414	153.566
1414.95	152.419
1415.9	151.321
1416.86	151.21
1417.81	150.882
1418.76	150.883
1419.72	151.172
1420.67	151.678
1421.62	152.056
1422.57	152.504
1423.52	153.188
1424.47	155.107
1425.42	157.074
1426.38	158.173
1427.33	159.04
1428.28	160.065
1429.23	160.671
1430.18	160.887
1431.12	161.672
1432.07	162.547
1433.02	162.222
1433.97	162.015
1434.92	162.471
1435.87	163.124
1436.82	163.373
1437.76	163.143
1438.71	162.856
1439.66	162.688
1440.6	162.481
1441.55	162.002
1442.5	161.8
1443.44	161.613
1444.39	161.024
1445.33	161.172
1446.28	159.617
1447.22	157.915
1448.17	156.535
1449.11	156.014
1450.06	155.546
1451	153.634
1451.94	152.484
1452.89	151.42
1453.83	150.582
1454.77	149.491
1455.71	148.223
1456.66	146.848
1457.6	145.983
1458.54	145.465
1459.48	144.875
1460.42	144.472
1461.36	143.576
1462.3	143.006
1463.24	142.669
1464.18	142.17
1465.12	141.679
1466.06	141.695
1467	141.613
1467.94	142.097
1468.88	142.594
1469.82	143.403
1470.76	144.355
1471.69	145.536
1472.63	145.993
1473.57	145.957
1474.51	145.966
1475.44	146.365
1476.38	146.878
1477.32	147.718
1478.25	147.479
1479.19	146.45
1480.12	145.342
1481.06	142.938
1481.99	141.811
1482.93	141.131
1483.86	140.953
1484.8	142.058
1485.73	142.822
1486.67	143.727
1487.6	144.487
1488.53	145.516
1489.47	145.837
1490.4	145.597
1491.33	144.977
1492.26	144.121
1493.19	143.347
1494.13	142.221
1495.06	141.728
1495.99	140.467
1496.92	138.984
1497.85	138.324
1498.78	138.152
1499.71	137.515
1500.64	136.903
1501.57	136.686
1502.5	136.472
1503.43	136.704
1504.36	137.208
1505.28	137.93
1506.21	138.799
1507.14	140.391
1508.07	140.839
1509	136.188
1509.92	145.656
1510.85	148.649
1511.78	152.738
1512.7	157.097
1513.63	161.277
1514.55	163.56
1515.48	166.392
1516.4	169.866
1517.33	173.821
1518.25	177.839
1519.18	181.735
1520.1	184.595
1521.03	187.112
1521.95	189.385
1522.87	191.341
1523.8	192.92
1524.72	194.345
1525.64	195.231
1526.57	195.249
1527.49	194.73
1528.41	193.526
1529.33	191.339
1530.25	188.203
1531.17	183.953
1532.1	179.292
1533.02	174.111
1533.94	168.677
1534.86	163.759
1535.78	159.306
1536.7	155.395
1537.61	152.365
1538.53	149.88
1539.45	149.264
1540.37	146.038
1541.29	143.353
1542.21	141.041
1543.12	139.283
1544.04	137.756
1544.96	136.875
1545.88	136.514
1546.79	136.632
1547.71	137.212
1548.63	138.233
1549.54	139.154
1550.46	139.361
1551.37	138.626
1552.29	138
1553.2	136.827
1554.12	136.172
1555.03	135.19
1555.95	133.837
1556.86	132.25
1557.77	130.601
1558.69	129.369
1559.6	127.78
1560.51	126.382
1561.42	125.56
1562.34	124.228
1563.25	122.835
1564.16	121.94
1565.07	121.356
1565.98	120.864
1566.89	120.224
1567.8	119.844
1568.71	119.395
1569.62	118.698
1570.53	118.001
1571.44	117.323
1572.35	116.606
1573.26	116.049
1574.17	115.809
1575.08	115.361
1575.99	115.056
1576.9	114.881
1577.8	114.616
1578.71	113.962
1579.62	113.69
1580.53	113.931
1581.43	114.922
1582.34	115.133
1583.25	115.283
1584.15	115.809
1585.06	116.363
1585.96	116.681
1586.87	117.302
1587.77	117.293
1588.68	117.632
1589.58	117.803
1590.49	116.992
1591.39	117.497
1592.29	118.369
1593.2	119.292
1594.1	120.005
1595	120.454
1595.91	120.918
1596.81	121.592
1597.71	121.89
1598.61	122.072
1599.51	122.187
1600.41	122.1
1601.32	121.733
1602.22	121.59
1603.12	121.536
1604.02	120.651
1604.92	119.505
1605.82	118.424
1606.72	116.865
1607.62	115.783
1608.51	114.491
1609.41	114.116
1610.31	113.693
1611.21	113.199
1612.11	112.74
1613.01	113.063
1613.9	113.168
1614.8	113.092
1615.7	112.569
1616.59	111.636
1617.49	110.791
1618.39	109.728
1619.28	108.297
1620.18	107.122
1621.07	106.64
1621.97	106.579
1622.86	106.874
1623.76	108.081
1624.65	109.808
1625.55	110.966
1626.44	111.502
1627.33	111.951
1628.23	111.917
1629.12	110.658
1630.01	110.421
1630.91	110.097
1631.8	109.673
1632.67	109.008
1633.6	107.426
1634.53	106.193
1635.46	105.572
1636.39	105.06
1637.31	104.928
1638.24	104.406
1639.17	104.456
1640.1	104.889
1641.02	105.15
1641.95	105.796
1642.88	105.483
1643.8	104.64
1644.73	103.895
1645.65	103.095
1646.58	102.932
1647.5	103.33
1648.43	103.308
1649.35	102.836
1650.28	101.829
1651.2	101.127
1652.13	100.807
1653.05	100.927
1653.97	101.866
1654.9	102.668
1655.82	104.18
1656.74	104.794
1657.66	105.171
1658.59	104.676
1659.51	104.16
1660.43	103.708
1661.35	103.695
1662.27	103.944
1663.2	104.1
1664.12	104.522
1665.04	104.741
1665.96	105.274
1666.88	105.127
1667.8	104.197
1668.72	103.193
1669.64	102.395
1670.56	102.121
1671.48	101.86
1672.4	101.617
1673.31	101.209
1674.23	101.031
1675.15	101.111
1676.07	101.382
1676.99	101.308
1677.9	101.444
1678.82	101.178
1679.74	101.013
1680.66	100.833
1681.57	100.577
1682.49	100.662
1683.41	100.885
1684.32	100.723
1685.24	100.624
1686.15	100.435
1687.07	100.264
1687.98	99.4998
1688.9	98.6814
1689.81	97.7982
1690.73	97.0271
1691.64	96.503
1692.56	95.66
1693.47	95.0261
1694.38	94.5331
1695.3	94.1322
1696.21	93.4527
1697.12	93.1738
1698.04	93.0501
1698.95	92.8788
1699.86	93.0999
1700.77	93.4281
1701.68	93.7039
1702.6	94.3311
1703.51	94.9081
1704.42	95.8856
1705.33	96.6582
1706.24	95.9626
1707.15	94.4953
1708.06	92.9937
1708.97	91.3003
1709.88	90.0274
1710.79	89.1932
1711.7	88.7965
1712.61	88.2462
1713.52	87.9701
1714.43	88.2565
1715.33	88.5163
1716.24	88.4375
1717.15	87.7129
1718.06	87.1019
1718.97	86.6845
1719.87	86.4213
1720.78	86.1646
1721.69	86.0457
1722.59	85.7851
1723.5	85.9902
1724.41	86.2063
1725.31	86.6732
1726.22	86.7919
1727.12	86.925
1728.03	86.8756
1728.93	87.2439
1729.84	87.6152
1730.74	87.8657
1731.65	87.451
1732.55	87.4937
1733.46	87.4277
1734.36	87.5956
1735.26	88.1144
1736.17	88.4416
1737.07	88.4975
1737.97	88.5309
1738.87	88.5055
1739.78	88.2914
1740.68	87.7413
1741.58	87.5295
1742.48	86.8103
1743.38	85.5775
1744.29	84.4562
1745.19	83.703
1746.09	83.2015
1746.99	83.4821
1747.89	83.3185
1748.79	83.1509
1749.69	83.0014
1750.59	83.34
1751.49	83.6125
1752.39	84.1134
1753.29	84.4801
1754.18	85.0169
1755.08	85.6484
1755.98	86.1122
1756.88	87.3061
1757.78	88.1129
1758.67	88.0555
1759.57	87.8411
1760.47	87.0593
1761.37	86.205
1762.26	85.4147
1763.16	84.6032
1764.06	83.4309
1764.95	82.6217
1765.85	81.5678
1766.74	81.2364
1767.64	81.1822
1768.53	81.625
1769.43	82.0857
1770.32	82.2532
1771.22	82.6568
1772.11	83.1027
1773.01	83.7798
1773.9	84.2102
1774.79	84.71
1775.69	84.9254
1776.58	84.8263
1777.47	84.0191
1778.37	83.4644
1779.26	82.6882
1780.15	81.1734
1781.04	79.6234
1781.93	77.9746
1782.83	77.3022
1783.72	76.8199
1784.61	76.7798
1785.5	76.5251
1786.39	76.5768
1787.28	76.3318
1788.17	75.8266
1789.06	75.5787
1789.95	75.5497
1790.84	75.9553
1791.73	76.7592
1792.62	77.9992
1793.51	78.9163
1794.4	79.3483
1795.28	79.651
1796.17	79.4332
1797.06	78.3333
1797.95	77.1104
1798.84	75.1903
1799.72	73.2059
