Acq. time (s)=	15
Accumulations=	2
Range (cm-¹)=	600...1800
Windows=	2
Autofocus=	Off
AutoExposure=	Off
Spike filter=	Multiple accum.
Delay time (s)=	1
Binning=	1
Readout mode=	Signal
DeNoise=	Standard
ICS correction=	Off
Dark correction=	Off
Inst. Process=	Off
Instrument=	XploRA
Detector=	Syncerity
Objective=	x20LWD
Grating=	1200 gr/mm
Filter=	25%
Laser (nm)=	785 
Slit (µm)=	100 
Hole (µm)=	300 
Laser pol=	None
Raman pol=	None
Output=	Camera
StageXY=	Marzhauser
StageZ=	
X (µm)=	-7577.9
Y (µm)=	-1512.2
Project=	
Sample=	
Site=	
Title=	Cmm1 s-t
Remark=	
Date=	22.07.2022 02:22
Acquired=	22.07.2022 02:22:12
600.839	1659.93
602.009	1678.05
603.178	1689.51
604.347	1699.49
605.516	1711.36
606.684	1720.39
607.852	1731.29
609.02	1742.35
610.187	1751.85
611.355	1762.22
612.521	1773.75
613.688	1785.42
614.854	1796.9
616.02	1808.4
617.185	1818.9
618.351	1828.19
619.516	1837.11
620.681	1844.94
621.846	1853.82
623.009	1858.83
624.174	1863.59
625.337	1866.84
626.501	1869.2
627.664	1869.43
628.826	1869.2
629.988	1866.86
631.151	1865.53
632.313	1862.42
633.474	1861.91
634.635	1862.88
635.797	1861.95
636.958	1863.23
638.117	1862.13
639.278	1860.96
640.437	1859.71
641.597	1857.96
642.756	1854.29
643.915	1850.35
645.074	1846.21
646.233	1842.44
647.391	1841.46
648.548	1842.17
649.706	1843.92
650.863	1845.4
652.02	1847.47
653.176	1849.86
654.333	1854.58
655.489	1858.87
656.645	1860.96
657.8	1862.13
658.955	1862.33
660.11	1863.58
661.264	1862.43
662.419	1862.1
663.573	1861.16
664.727	1858.97
665.88	1858.1
667.033	1855.62
668.186	1855.21
669.338	1857.53
670.491	1860.96
671.643	1863.4
672.794	1865.6
673.945	1867.2
675.096	1870.3
676.247	1874.41
677.398	1877.9
678.548	1880.84
679.698	1883.67
680.847	1885.13
681.997	1885.72
683.146	1886.82
684.294	1887.43
685.443	1887.78
686.591	1888.2
687.739	1888.23
688.887	1887.24
690.034	1885.55
691.181	1883.56
692.328	1883.35
693.474	1882.74
694.62	1881.01
695.766	1880.65
696.911	1879.79
698.057	1880.05
699.202	1880.34
700.346	1880.77
701.49	1883.33
702.635	1882.67
703.779	1880.91
704.922	1878.64
706.065	1878.42
707.208	1876.09
708.351	1872.91
709.493	1866.47
710.635	1858.32
711.776	1852.77
712.918	1847.14
714.059	1841.44
715.2	1841.53
716.341	1842.55
717.481	1840.1
718.621	1824.18
719.761	1820.4
720.9	1816.3
722.04	1812.01
723.178	1807.76
724.317	1803.88
725.455	1801.86
726.594	1800.42
727.731	1799.68
728.868	1800.75
730.005	1801.22
731.142	1804.43
732.279	1808.11
733.415	1812.72
734.551	1819.31
735.686	1825.17
736.822	1830.74
737.957	1837.82
739.092	1846.01
740.226	1851.11
741.36	1854.39
742.495	1855.22
743.628	1854.33
744.762	1852
745.895	1848.05
747.027	1844.94
748.16	1842.35
749.292	1837.12
750.423	1833.41
751.555	1826.69
752.686	1819.63
753.817	1811.75
754.949	1802.07
756.079	1790.15
757.209	1778.61
758.339	1767.33
759.469	1757.55
760.597	1748.46
761.727	1739.57
762.856	1732.83
763.984	1726.58
765.112	1721.72
766.24	1715.6
767.367	1709.28
768.494	1702.95
769.622	1697.3
770.749	1691.28
771.874	1684.24
773.001	1678.5
774.127	1673.16
775.253	1665.2
776.377	1660.05
777.503	1654.44
778.627	1649.06
779.751	1642.79
780.876	1638.41
782	1634.46
783.123	1631.62
784.246	1629.29
785.37	1627.45
786.492	1623.62
787.614	1619.12
788.737	1612.82
789.858	1609.54
790.979	1603.93
792.101	1597.07
793.222	1589.94
794.342	1584.55
795.463	1580.93
796.583	1577.45
797.702	1573.33
798.822	1568.76
799.942	1564.43
801.06	1561.13
802.179	1558.07
803.297	1557.48
804.415	1555.77
805.533	1554.37
806.651	1551.08
807.768	1547.67
808.885	1546.16
810.001	1545.44
811.118	1544.44
812.233	1544.11
813.349	1542.68
814.464	1541.21
815.58	1539.63
816.695	1538.63
817.809	1535.97
818.924	1533.76
820.038	1530.56
821.152	1527.77
822.265	1525.13
823.378	1523.41
824.491	1521.25
825.604	1518.82
826.716	1515.46
827.828	1513.36
828.94	1511.26
830.051	1509.73
831.162	1509.61
832.273	1507.68
833.383	1505.55
834.494	1503.61
835.604	1501.22
836.714	1496.75
837.823	1492.77
838.932	1490.53
840.041	1487.77
841.15	1485.14
842.258	1482.25
843.366	1480.01
844.474	1478.1
845.581	1477.76
846.688	1476.49
847.795	1476.35
848.901	1477.49
850.008	1477.91
851.115	1477.88
852.22	1475.22
853.325	1470.51
854.43	1465.79
855.536	1460.17
856.64	1454.9
857.745	1449.37
858.848	1444.15
859.952	1439.19
861.055	1434.62
862.158	1429.18
863.261	1424.03
864.364	1419.32
865.466	1414.2
866.568	1409.44
867.67	1405.11
868.771	1401.35
869.873	1399.04
870.973	1397.29
872.074	1393.51
873.174	1390.91
874.274	1389.17
875.374	1388.46
876.473	1388.36
877.572	1387.33
878.671	1385.9
879.77	1385.59
880.868	1384.61
881.966	1383.22
883.064	1379.48
884.161	1375.26
885.258	1371.45
886.356	1367.5
887.452	1363.72
888.548	1360.19
889.645	1357.22
890.74	1355.13
891.836	1352.41
892.931	1349.39
894.025	1346.3
895.12	1343.92
896.214	1341.87
897.308	1341.54
898.402	1340.91
899.495	1340.72
900.588	1341.58
901.681	1341.87
902.774	1340.5
903.866	1342.49
904.958	1344.64
906.05	1343.02
907.142	1347.07
908.233	1352.73
909.324	1359.93
910.414	1367.1
911.504	1373.42
912.594	1379.87
913.684	1383.36
914.774	1385.78
915.863	1385.77
916.952	1384.11
918.041	1380.63
919.129	1374.95
920.217	1367.73
921.305	1356.52
922.392	1347.5
923.48	1337.89
924.567	1326.87
925.653	1315.14
926.74	1305.86
927.825	1295.5
928.911	1286.64
929.997	1276.6
931.082	1269.32
932.166	1263.22
933.252	1258.91
934.336	1256.6
935.42	1254.12
936.504	1252.65
937.587	1250.32
938.671	1249.26
939.753	1249.11
940.836	1249.03
941.919	1250.88
943	1251.48
944.082	1251.29
945.163	1248.39
946.245	1243.71
947.326	1232.82
948.406	1227.5
949.487	1225.55
950.567	1218.44
951.647	1212
952.727	1207.56
953.805	1205.36
954.885	1208.23
955.964	1221.72
957.042	1215.39
958.12	1209.46
959.198	1205.65
960.276	1202.24
961.352	1199.38
962.43	1196.48
963.507	1193.57
964.583	1191.15
965.659	1189.08
966.735	1187.18
967.81	1185.71
968.885	1184.14
969.961	1185.58
971.036	1186.34
972.11	1188.54
973.184	1190.26
974.258	1191.86
975.332	1194.44
976.405	1197.93
977.478	1200.28
978.551	1203.02
979.624	1206.02
980.696	1212.26
981.767	1216.66
982.839	1221.18
983.911	1223.8
984.982	1228.21
986.052	1230.61
987.123	1229.71
988.193	1227.51
989.263	1224.51
990.333	1221.47
991.403	1217.51
992.471	1209.2
993.54	1204.76
994.608	1200.96
995.677	1198.71
996.745	1197.07
997.812	1199.12
998.88	1199.93
999.947	1199.41
1001.01	1199.61
1002.08	1201.09
1003.15	1202.72
1004.21	1200.68
1005.28	1196.35
1006.34	1186.74
1007.41	1179.93
1008.47	1172.14
1009.54	1163.11
1010.6	1151.51
1011.67	1142
1012.73	1133.52
1013.79	1123.83
1014.86	1114.51
1015.92	1107.43
1016.98	1101.73
1018.05	1095.44
1019.11	1091.08
1020.17	1087.89
1021.23	1084.84
1022.29	1082.21
1023.35	1079.23
1024.41	1076.82
1025.47	1073.19
1026.53	1070.21
1027.59	1066.05
1028.65	1063.04
1029.71	1060.64
1030.77	1058.32
1031.83	1056.91
1032.89	1055.16
1033.95	1053.66
1035	1050.61
1036.06	1048.69
1037.12	1047.69
1038.18	1047.12
1039.23	1048.43
1040.29	1049.66
1041.35	1050.73
1042.4	1051.4
1043.46	1051.69
1044.51	1052.21
1045.57	1055.45
1046.62	1056.17
1047.68	1055.45
1048.73	1054.26
1049.79	1051.18
1050.84	1050.86
1051.89	1047.38
1052.95	1042.01
1054	1036.55
1055.05	1031.71
1056.1	1026.98
1057.16	1023.24
1058.21	1017.14
1059.26	1014.82
1060.31	1014.69
1061.36	1014.68
1062.41	1014.37
1063.46	1014.78
1064.51	1014.9
1065.56	1015.82
1066.61	1017.25
1067.66	1019.24
1068.71	1020.14
1069.76	1019.93
1070.81	1018.82
1071.85	1017.66
1072.9	1011.42
1073.95	1007.95
1075	1003.76
1076.04	997.011
1077.09	993.646
1078.14	989.861
1079.18	985.978
1080.23	983.379
1081.27	979.737
1082.32	976.067
1083.36	973.63
1084.41	971.076
1085.45	968.923
1086.5	968.098
1087.54	966.007
1088.59	963.287
1089.63	959.471
1090.67	956.745
1091.71	954.932
1092.76	952.5
1093.8	949.182
1094.84	946.842
1095.88	944.385
1096.92	943.204
1097.97	943.032
1099.01	942.441
1100.05	942.57
1101.09	944.49
1102.13	947.496
1103.17	952.08
1104.21	957.253
1105.25	962.431
1106.28	966.99
1107.32	971.637
1108.36	974.431
1109.4	976.561
1110.44	977.24
1111.47	975.663
1112.51	972.528
1113.55	968.243
1114.59	962.333
1115.62	955.375
1116.66	948.522
1117.69	941.113
1118.73	932.794
1119.77	925.351
1120.8	918.712
1121.84	913.297
1122.87	910
1123.9	907.378
1124.94	905.233
1125.97	904.112
1127	903.755
1128.04	904.969
1129.07	906.953
1130.1	910.733
1131.13	916.188
1132.17	921.316
1133.2	926.495
1134.23	932.082
1135.26	938.129
1136.29	943.965
1137.32	952.105
1138.35	959.27
1139.38	963.614
1140.41	968.934
1141.44	972.074
1142.47	973.286
1143.5	974.066
1144.53	971.399
1145.56	972.215
1146.59	973.333
1147.61	977.684
1148.64	979.072
1149.67	985.381
1150.7	992.152
1151.72	1000.6
1152.75	1008.05
1153.77	1016.6
1154.8	1022.67
1155.83	1036.51
1156.85	1038.03
1157.88	1037.39
1158.9	1033.2
1159.93	1017.34
1160.95	1003.31
1161.97	989.236
1163	974.596
1164.02	956.244
1165.04	940.099
1166.07	923.809
1167.09	908.374
1168.11	895.991
1169.13	884.026
1170.16	880.65
1171.18	882.481
1172.2	879.986
1173.22	881.407
1174.24	882.984
1175.26	887.029
1176.28	891.679
1177.3	898.253
1178.32	905.74
1179.34	912.562
1180.36	919.41
1181.38	925.988
1182.4	931.608
1183.41	935.688
1184.43	938.803
1185.45	938.721
1186.47	937.319
1187.48	934.367
1188.5	931.656
1189.52	925.925
1190.53	919.459
1191.55	909.383
1192.56	899.007
1193.58	889.306
1194.59	878.635
1195.61	867.546
1196.62	858.463
1197.64	850.361
1198.65	844.485
1199.67	838.936
1200.68	834.52
1201.69	831.262
1202.71	828.932
1203.72	829.456
1204.73	827.955
1205.74	827.781
1206.76	827.646
1207.77	827.923
1208.78	828.238
1209.79	828.556
1210.8	829.023
1211.81	829.561
1212.82	830.425
1213.83	832.691
1214.84	835.231
1215.85	839.272
1216.86	844.469
1217.87	847.529
1218.88	850.464
1219.88	851.735
1220.89	852.93
1221.9	854.302
1222.91	853.068
1223.92	852.707
1224.92	851.673
1225.93	847.894
1226.93	843.088
1227.94	837.527
1228.95	831.845
1229.95	825.214
1230.96	816.554
1231.96	807.897
1232.97	800.378
1233.97	793.845
1234.98	786.992
1235.98	780.775
1236.98	775.348
1237.99	770.13
1238.99	765.033
1239.99	760.47
1241	757.065
1242	754.354
1243	751.031
1244	748.176
1245	745.503
1246	743.293
1247.01	740.555
1248.01	738.094
1249.01	735.655
1250.01	733.466
1251.01	732.164
1252.01	731.799
1253	731.84
1254	731.531
1255	731.805
1256	732.851
1257	733.661
1258	733.294
1258.99	735.233
1259.99	736.927
1260.99	739.682
1261.99	743.535
1262.98	745.025
1263.98	745.275
1264.98	745.163
1265.97	742.847
1266.97	739.595
1267.96	735.798
1268.96	731.119
1269.95	726.253
1270.95	724.465
1271.94	722.238
1272.93	723.127
1273.93	721.877
1274.92	720.067
1275.91	719.457
1276.91	717.92
1277.9	717.295
1278.89	717.747
1279.88	718.258
1280.87	719.679
1281.87	720.521
1282.86	721.596
1283.85	722.49
1284.84	723.224
1285.83	725.197
1286.82	724.819
1287.81	729.307
1288.8	726.51
1289.79	722.511
1290.78	717.552
1291.76	711.347
1292.75	703.418
1293.74	694.766
1294.73	687.442
1295.72	681.004
1296.7	676.368
1297.69	672.793
1298.68	678.555
1299.66	678.79
1300.65	679.324
1301.64	680.88
1302.62	682.599
1303.61	684.549
1304.59	685.489
1305.58	685.409
1306.56	684.237
1307.55	683.645
1308.53	680.766
1309.51	677.547
1310.5	674.817
1311.48	671.661
1312.46	669.488
1313.45	667.613
1314.43	666.183
1315.41	663.013
1316.39	666.343
1317.38	671.8
1318.36	677.201
1319.34	685.754
1320.32	694.314
1321.3	704.43
1322.28	717.352
1323.26	728.127
1324.24	737.025
1325.22	744.627
1326.2	748.763
1327.18	749.706
1328.16	746.63
1329.13	740.037
1330.11	724.4
1331.09	712.561
1332.07	700.069
1333.04	688.566
1334.02	676.838
1335	664.806
1335.97	653.427
1336.95	653.015
1337.93	644.2
1338.9	639.538
1339.88	635.706
1340.85	632.533
1341.83	629.872
1342.8	629.196
1343.78	629.612
1344.75	629.688
1345.72	629.568
1346.7	628.842
1347.67	628.614
1348.65	628.478
1349.62	627.401
1350.59	626.152
1351.56	624.598
1352.53	622.329
1353.51	619.449
1354.48	617.377
1355.45	615.179
1356.42	613.416
1357.39	610.666
1358.36	608.198
1359.33	605.611
1360.3	601.804
1361.27	597.928
1362.24	594.378
1363.21	591.053
1364.18	588.047
1365.14	584.686
1366.11	580.474
1367.08	578.841
1368.05	578.502
1369.02	579.084
1369.98	581.174
1370.95	583.319
1371.92	586.006
1372.88	588.89
1373.85	590.478
1374.81	591.534
1375.78	592.408
1376.74	591.539
1377.71	590.14
1378.68	588.498
1379.64	586.389
1380.6	583.609
1381.57	580.338
1382.53	580.337
1383.49	580.197
1384.46	580.892
1385.42	580.928
1386.38	580.975
1387.34	581.608
1388.31	582.59
1389.27	582.896
1390.23	581.63
1391.19	580.091
1392.15	577.734
1393.11	575.651
1394.07	572.95
1395.03	570.28
1395.99	566.633
1396.95	564.254
1397.91	561.257
1398.87	557.74
1399.83	553.896
1400.79	551.294
1401.75	547.973
1402.7	545.187
1403.66	543.195
1404.62	542.305
1405.58	542.005
1406.53	541.039
1407.49	540.447
1408.45	539.637
1409.4	538.514
1410.36	537.931
1411.31	538.395
1412.27	539.831
1413.23	540.809
1414.18	542.194
1415.13	542.773
1416.09	542.12
1417.04	540.999
1418	539.533
1418.95	539.068
1419.9	538.731
1420.86	538.183
1421.81	537.501
1422.76	535.938
1423.71	534.804
1424.67	534.789
1425.62	535.375
1426.57	538.093
1427.52	540.553
1428.47	545.037
1429.42	547.334
1430.37	549.405
1431.32	551.98
1432.27	555.307
1433.22	558.01
1434.17	560.595
1435.12	561.826
1436.07	563.039
1437.02	563.942
1437.96	564.05
1438.91	562.185
1439.86	559.404
1440.81	555.23
1441.75	550.365
1442.7	546.702
1443.65	543.438
1444.59	539.769
1445.54	536.118
1446.49	532.41
1447.43	529.915
1448.38	527.886
1449.32	525.341
1450.27	523.633
1451.21	521.99
1452.15	521.164
1453.1	520.645
1454.04	521.334
1454.98	521.467
1455.93	519.992
1456.87	517.401
1457.81	514.06
1458.76	511.675
1459.7	509.005
1460.64	506.302
1461.58	504.266
1462.52	502.557
1463.46	501.134
1464.4	498.784
1465.34	497.667
1466.28	496.828
1467.22	495.198
1468.16	493.498
1469.1	492.758
1470.04	492.101
1470.98	491.077
1471.92	489.778
1472.86	488.282
1473.8	486.451
1474.73	485.044
1475.67	484.108
1476.61	483.506
1477.55	482.186
1478.48	481.947
1479.42	481.84
1480.36	482.689
1481.29	484.606
1482.23	486.937
1483.16	489.228
1484.1	491.255
1485.03	492.066
1485.97	493.404
1486.9	494.706
1487.84	494.954
1488.77	494.541
1489.7	493.387
1490.64	491.693
1491.57	490.285
1492.5	487.679
1493.44	485.4
1494.37	482.627
1495.3	479.611
1496.23	476.789
1497.16	474.261
1498.09	472.11
1499.02	470.279
1499.96	468.717
1500.89	467.9
1501.82	467.831
1502.75	467.62
1503.68	468.328
1504.61	469.858
1505.53	471.914
1506.46	475.032
1507.39	478.889
1508.32	483.468
1509.25	488.354
1510.18	494.447
1511.1	501.979
1512.03	509.418
1512.96	516.671
1513.88	525.467
1514.81	535.428
1515.74	544.948
1516.66	555.08
1517.59	565.475
1518.51	576.344
1519.44	586.991
1520.36	597.202
1521.29	606.373
1522.21	615.907
1523.14	623.647
1524.06	630.954
1524.98	636.752
1525.91	639.337
1526.83	639.324
1527.75	637.381
1528.68	633.748
1529.6	627.164
1530.52	618.058
1531.44	609.4
1532.36	600.496
1533.29	589.956
1534.21	578.056
1535.13	566.715
1536.05	554.295
1536.97	542.137
1537.89	530.567
1538.81	519.519
1539.73	511.225
1540.65	503.999
1541.56	497.994
1542.48	493.248
1543.4	487.522
1544.32	483.534
1545.24	482.808
1546.16	482.611
1547.07	483.322
1547.99	484.519
1548.91	486.709
1549.82	490.49
1550.74	493.918
1551.66	495.015
1552.57	495.08
1553.49	493.301
1554.4	490.738
1555.32	487.2
1556.23	481.484
1557.15	476.47
1558.06	468.564
1558.97	462.34
1559.89	456.923
1560.8	452.007
1561.71	447.309
1562.63	443.451
1563.54	441.553
1564.45	439.629
1565.36	438.291
1566.28	436.555
1567.19	435.107
1568.1	433.933
1569.01	432.713
1569.92	432.112
1570.83	432.655
1571.74	433.179
1572.65	433.663
1573.56	433.641
1574.47	433.752
1575.38	434.131
1576.29	434.421
1577.2	434.876
1578.11	435.643
1579.01	437.097
1579.92	438.211
1580.83	439.071
1581.74	439.372
1582.64	439.764
1583.55	440.202
1584.46	439.756
1585.36	439.511
1586.27	439.167
1587.18	439.086
1588.08	439.796
1588.99	440.64
1589.89	441.458
1590.8	442.481
1591.7	443.833
1592.61	445.865
1593.51	447.751
1594.41	449.845
1595.32	452.202
1596.22	454.65
1597.12	456.837
1598.03	458.673
1598.93	461.083
1599.83	463.681
1600.73	465.979
1601.64	468.424
1602.54	470.436
1603.44	472.283
1604.34	473.808
1605.24	474.691
1606.14	475.02
1607.04	475.126
1607.94	475.111
1608.84	474.894
1609.74	474.741
1610.64	474.123
1611.54	473.374
1612.44	472.63
1613.33	471.969
1614.23	471.502
1615.13	470.903
1616.03	470.272
1616.92	469.985
1617.82	469.752
1618.72	469.658
1619.61	469.667
1620.51	469.82
1621.41	470.032
1622.3	470.379
1623.2	470.728
1624.09	471.057
1624.99	471.248
1625.88	470.795
1626.78	469.802
1627.67	468.685
1628.57	467.467
1629.46	466.295
1630.35	465.198
1631.25	464.322
1632.14	463.568
1632.85	462.67
1633.78	461.02
1634.71	459.614
1635.64	458.521
1636.57	457.739
1637.5	457.372
1638.42	457.319
1639.35	457.412
1640.28	459.812
1641.21	458.925
1642.13	459.933
1643.06	458.365
1643.99	457.574
1644.91	455.905
1645.84	454.584
1646.77	454.162
1647.69	455.31
1648.62	457.38
1649.54	463.703
1650.47	468.24
1651.39	474.05
1652.32	472.15
1653.24	470.609
1654.17	469.965
1655.09	469.594
1656.01	469.09
1656.94	463.258
1657.86	460.047
1658.78	455.418
1659.71	458.051
1660.63	451.363
1661.55	451.491
1662.47	450.328
1663.4	451.021
1664.32	444.236
1665.24	442.754
1666.16	441.865
1667.08	443.063
1668	444.391
1668.92	445.199
1669.84	445.776
1670.76	446.085
1671.68	446.021
1672.6	445.629
1673.52	444.898
1674.44	443.888
1675.36	442.476
1676.28	440.799
1677.2	438.547
1678.12	436.193
1679.03	433.932
1679.95	431.796
1680.87	430.969
1681.79	430.072
1682.7	429.513
1683.62	429.135
1684.54	429.474
1685.45	430.064
1686.37	430.602
1687.29	431.144
1688.2	430.946
1689.12	431.007
1690.03	429.477
1690.95	426.926
1691.86	423.077
1692.78	417.523
1693.69	412.813
1694.61	408.955
1695.52	405.916
1696.43	403.808
1697.35	402.69
1698.26	402.523
1699.17	404.368
1700.09	406.277
1701	406.252
1701.91	406.18
1702.82	403.011
1703.74	401.273
1704.65	400.585
1705.56	400.09
1706.47	400.281
1707.38	400.826
1708.29	401.932
1709.2	402.975
1710.11	404.059
1711.02	404.643
1711.93	404.488
1712.84	403.737
1713.75	402.62
1714.66	401.235
1715.57	400.266
1716.48	399.039
1717.39	397.248
1718.3	394.255
1719.21	391.42
1720.11	388.871
1721.02	386.756
1721.93	385.427
1722.84	384.675
1723.74	384.42
1724.65	384.603
1725.56	385.19
1726.46	386.373
1727.37	387.659
1728.28	389.039
1729.18	389.221
1730.09	388.997
1730.99	388.496
1731.9	387.741
1732.8	386.667
1733.71	385.834
1734.61	385.413
1735.52	383.669
1736.42	381.277
1737.32	379.128
1738.23	377.246
1739.13	375.738
1740.03	374.003
1740.94	372.4
1741.84	370.997
1742.74	369.896
1743.64	369.088
1744.54	369.107
1745.45	370.119
1746.35	370.793
1747.25	370.797
1748.15	370.592
1749.05	370.366
1749.95	370.032
1750.85	369.86
1751.75	369.583
1752.65	369.381
1753.55	369.089
1754.45	369.168
1755.35	369.436
1756.25	370.098
1757.15	370.326
1758.05	370.206
1758.94	369.859
1759.84	369.888
1760.74	369.803
1761.64	369.809
1762.53	369.638
1763.43	369.351
1764.33	368.46
1765.23	367
1766.12	365.344
1767.02	363.68
1767.91	361.98
1768.81	360.561
1769.71	359.094
1770.6	357.707
1771.5	356.381
1772.39	355.159
1773.29	354.17
1774.18	353.039
1775.07	351.911
1775.97	350.807
1776.86	350.219
1777.76	350.525
1778.65	350.265
1779.54	349.933
1780.44	349.417
1781.33	348.744
1782.22	348.096
1783.11	347.728
1784.01	347.416
1784.9	347.146
1785.79	347.299
1786.68	346.987
1787.57	346.521
1788.46	346.009
1789.35	345.092
1790.24	344.257
1791.13	343.369
1792.02	342.589
1792.91	341.708
1793.8	340.738
1794.69	339.782
1795.58	338.831
1796.47	337.909
1797.36	337.223
1798.25	336.446
1799.14	336.026
