Acq. time (s)=	15
Accumulations=	2
Range (cm-¹)=	600...1800
Windows=	2
Autofocus=	Off
AutoExposure=	Off
Spike filter=	Multiple accum.
Delay time (s)=	1
Binning=	1
Readout mode=	Signal
DeNoise=	Standard
ICS correction=	Off
Dark correction=	Off
Inst. Process=	Off
Instrument=	XploRA
Detector=	Syncerity
Objective=	x20LWD
Grating=	1200 gr/mm
Filter=	25%
Laser (nm)=	785 
Slit (µm)=	100 
Hole (µm)=	300 
Laser pol=	None
Raman pol=	None
Output=	Camera
StageXY=	Marzhauser
StageZ=	
X (µm)=	-3691.7
Y (µm)=	-3490
Project=	
Sample=	
Site=	
Title=	CLsoP1 f5
Remark=	
Date=	06.04.2022 11:46
Acquired=	06.04.2022 11:46:51
600.731	413.137
601.9	418.202
603.069	422.735
604.238	427.641
605.406	432.887
606.575	439.243
607.743	445.142
608.91	448.275
610.078	451.845
611.245	455.068
612.411	456.647
613.579	457.897
614.745	458.84
615.91	459.466
617.076	459.809
618.241	459.92
619.407	459.859
620.571	459.655
621.735	459.144
622.9	458.464
624.063	457.356
625.227	455.843
626.39	455.346
627.553	456.665
628.716	458.604
629.879	461.214
631.041	464.813
632.203	462.939
633.364	461.678
634.526	459.751
635.686	458.54
636.847	456.91
638.007	455.871
639.167	455.202
640.327	455.255
641.486	456.448
642.645	458.345
643.805	459.028
644.963	458.656
646.122	458.554
647.28	458.718
648.438	458.829
649.594	457.748
650.752	457.964
651.909	460.154
653.065	461.098
654.221	461.481
655.377	461.811
656.533	459.057
657.688	456.983
658.843	456.488
659.998	455.818
661.153	455.801
662.307	455.527
663.461	455.837
664.615	456.268
665.768	457.192
666.921	458.209
668.074	459.377
669.226	460.626
670.379	462.025
671.53	463.544
672.682	464.961
673.833	464.862
674.984	464.623
676.135	464.454
677.285	464.472
678.436	464.804
679.586	465.392
680.735	466.742
681.884	466.542
683.033	466.473
684.182	465.97
685.33	464.975
686.478	464.976
687.626	464.79
688.774	464.292
689.921	463.552
691.068	463.749
692.214	462.933
693.361	462.54
694.507	462.13
695.652	461.31
696.798	460.212
697.943	458.729
699.088	454.482
700.233	450.652
701.377	447.823
702.521	447.273
703.665	446.957
704.808	445.002
705.951	442.391
707.094	440.591
708.236	438.753
709.379	437.348
710.522	436.269
711.663	435.068
712.804	435.01
713.946	435.191
715.086	435.603
716.227	437.063
717.367	438.565
718.507	439.923
719.647	441.082
720.786	440.591
721.925	439.68
723.064	440.733
724.202	441.595
725.341	441.584
726.479	441.163
727.616	440.561
728.753	439.793
729.89	439.401
731.027	438.568
732.163	438.028
733.3	438.239
734.436	439.148
735.572	440.508
736.707	441.928
737.842	443.836
738.977	445.634
740.111	446.889
741.246	447.155
742.379	447.079
743.513	446.566
744.646	445.849
745.779	444.718
746.911	443.316
748.044	441.658
749.176	439.586
750.308	437.3
751.44	434.818
752.571	432.955
753.702	434.648
754.833	433.192
755.963	431.217
757.093	429.009
758.223	426.726
759.353	423.99
760.481	421.309
761.61	418.759
762.74	416.758
763.867	415.644
764.996	414.922
766.124	413.028
767.251	411.239
768.378	409.259
769.505	407.266
770.631	405.883
771.758	404.958
772.884	405.115
774.01	405.281
775.136	405.098
776.261	403.882
777.386	401.649
778.51	396.846
779.634	394.519
780.758	393.092
781.882	392.477
783.006	393.19
784.129	394.628
785.252	396.628
786.375	396.553
787.497	397.721
788.619	393.756
789.741	389.167
790.862	383.563
791.983	374.761
793.104	375.647
794.225	377.76
795.345	380.501
796.465	385.462
797.585	382.532
798.704	379.466
799.823	377.326
800.943	375.738
802.061	375.595
803.179	379.202
804.297	378.709
805.415	377.64
806.532	376.567
807.649	375.395
808.766	374.364
809.883	373.233
810.999	372.673
812.115	372.411
813.231	372.452
814.346	372.06
815.461	371.115
816.577	369.749
817.691	369.281
818.805	368.935
819.919	368.739
821.033	368.602
822.146	368.633
823.259	367.576
824.372	366.513
825.485	365.459
826.597	364.654
827.709	363.964
828.82	363.429
829.932	363.168
831.043	363.133
832.154	363.367
833.265	363.718
834.375	363.881
835.484	364.113
836.594	363.928
837.704	363.627
838.813	364.304
839.922	365.705
841.03	367.65
842.138	369.021
843.246	369.695
844.354	369.546
845.461	368.82
846.568	367.618
847.675	366.126
848.782	363.753
849.888	361.37
850.994	359.439
852.1	358.237
853.205	357.314
854.31	356.659
855.415	356.195
856.52	355.573
857.624	355.172
858.727	354.733
859.831	353.954
860.935	353.131
862.038	352.706
863.141	351.709
864.243	349.616
865.345	347.876
866.448	346.914
867.549	345.587
868.651	342.898
869.751	341.881
870.852	341.062
871.953	340.128
873.053	339.764
874.153	339.391
875.253	338.9
876.352	338.604
877.451	337.439
878.55	336.962
879.648	336.684
880.747	336.319
881.845	335.821
882.943	335.242
884.039	334.358
885.137	333.406
886.233	331.937
887.33	330.239
888.426	329.123
889.522	327.235
890.618	325.659
891.713	322.897
892.808	320.514
893.903	319.151
894.998	319.111
896.092	319.757
897.186	320.752
898.28	321.713
899.374	322.372
900.467	323.579
901.559	325.353
902.652	329.019
903.744	329.206
904.836	328.414
905.927	327.798
907.019	327.378
908.111	326.886
909.201	327.236
910.291	327.423
911.382	327.734
912.472	327.927
913.562	327.665
914.651	327.12
915.741	327.137
916.829	327.088
917.918	325.683
919.006	324.07
920.094	322.375
921.181	321.064
922.269	320.012
923.356	319.156
924.443	318.435
925.53	317.532
926.616	316.43
927.702	315.514
928.788	314.604
929.873	312.706
930.958	310.278
932.044	307.881
933.128	305.812
934.212	303.493
935.296	303.403
936.38	301.712
937.463	307.454
938.547	308.371
939.63	308.047
940.712	306.829
941.795	305.619
942.876	304.869
943.958	304.19
945.039	303.672
946.121	302.302
947.202	299.537
948.282	298.036
949.363	295.488
950.443	295.503
951.522	295.836
952.602	295.405
953.681	294.054
954.76	292.572
955.839	291.187
956.917	289.891
957.995	288.743
959.073	287.907
960.151	287.363
961.228	286.969
962.305	286.754
963.381	286.728
964.458	286.905
965.534	287.29
966.61	287.89
967.685	288.678
968.76	289.56
969.836	290.539
970.91	291.344
971.984	291.358
973.059	291.514
974.133	291.321
975.206	292.002
976.279	292.309
977.352	292.494
978.425	292.805
979.497	292.81
980.57	292.866
981.642	292.9
982.714	292.955
983.785	293.167
984.856	293.715
985.927	294.089
986.997	293.822
988.067	293.13
989.137	292.4
990.206	291.619
991.276	291.019
992.345	290.559
993.413	289.76
994.482	286.572
995.55	286.588
996.619	287.718
997.686	289.538
998.754	288.772
999.821	288.281
1000.89	291.068
1001.95	290.592
1003.02	289.232
1004.09	285.851
1005.15	284.147
1006.22	282.038
1007.28	279.324
1008.35	278.141
1009.41	277.875
1010.48	276.292
1011.54	273.45
1012.6	271.402
1013.67	271.225
1014.73	270.125
1015.79	269.349
1016.86	271.033
1017.92	268.98
1018.98	266.881
1020.04	264.896
1021.1	263.131
1022.16	261.521
1023.23	260.163
1024.29	259.04
1025.35	258.18
1026.41	257.545
1027.47	256.655
1028.53	255.562
1029.58	254.735
1030.64	254.275
1031.7	253.436
1032.76	252.803
1033.82	252.043
1034.88	251.721
1035.93	251.483
1036.99	250.161
1038.05	249.447
1039.11	248.822
1040.16	248.628
1041.22	248.63
1042.27	249.555
1043.33	249.734
1044.38	250.231
1045.44	251.195
1046.49	252.374
1047.55	253.857
1048.6	255.084
1049.66	255.637
1050.71	255.281
1051.76	252.758
1052.82	250.404
1053.87	247.657
1054.92	245.161
1055.97	243.213
1057.03	242.051
1058.08	241.576
1059.13	241.668
1060.18	242.349
1061.23	243.636
1062.28	245.323
1063.33	247.38
1064.38	248.986
1065.43	250.85
1066.48	252.468
1067.53	252.243
1068.58	251.391
1069.63	250.135
1070.68	248.76
1071.72	246.826
1072.77	244.895
1073.82	242.743
1074.87	241.111
1075.91	239.884
1076.96	238.887
1078.01	238.154
1079.05	237.562
1080.1	237.186
1081.14	235.804
1082.19	235.215
1083.23	235.439
1084.28	236.114
1085.32	237.637
1086.37	239.249
1087.41	239.309
1088.46	238.759
1089.5	238.011
1090.54	235.999
1091.58	234.427
1092.63	231.921
1093.67	230.951
1094.71	230.001
1095.75	229.767
1096.79	229.556
1097.83	229.261
1098.88	228.823
1099.92	229.082
1100.96	230.16
1102	231.58
1103.04	233.663
1104.08	234.839
1105.11	234.761
1106.15	235.106
1107.19	235.336
1108.23	234.858
1109.27	233.55
1110.31	233.626
1111.34	233.42
1112.38	233.248
1113.42	233.442
1114.45	233.212
1115.49	233.214
1116.53	233.18
1117.56	232.986
1118.6	230.533
1119.63	229.812
1120.67	227.489
1121.7	225.338
1122.74	223.344
1123.77	221.737
1124.81	220.687
1125.84	219.994
1126.87	219.33
1127.91	219.03
1128.94	219.558
1129.97	219.489
1131	221.776
1132.04	223.782
1133.07	225.553
1134.1	227.585
1135.13	229.659
1136.16	231.03
1137.19	232.727
1138.22	234.502
1139.25	235.885
1140.28	237.16
1141.31	238.17
1142.34	237.164
1143.37	237.461
1144.4	237.595
1145.42	238.562
1146.45	241.222
1147.48	241.682
1148.51	241.991
1149.53	242.504
1150.56	244.039
1151.59	244.241
1152.62	245.143
1153.64	245.124
1154.67	241.092
1155.69	243.565
1156.72	245.554
1157.74	247.626
1158.77	248.414
1159.79	246.621
1160.82	244.305
1161.84	241.303
1162.86	237.766
1163.89	232.953
1164.91	227.41
1165.93	223.006
1166.96	219.458
1167.98	217.855
1169	216.97
1170.02	217.511
1171.04	218.619
1172.06	219.922
1173.09	219.749
1174.11	219.166
1175.13	219.093
1176.15	219.933
1177.17	221.523
1178.18	222.9
1179.2	223.865
1180.22	224.039
1181.24	224.185
1182.26	224.322
1183.28	224.871
1184.3	225.702
1185.31	226.481
1186.33	225.644
1187.35	224.726
1188.37	223.534
1189.38	222.133
1190.4	220.696
1191.41	218.943
1192.43	216.925
1193.44	214.776
1194.46	213.161
1195.48	211.399
1196.49	210.236
1197.5	209.539
1198.52	209.247
1199.53	209.027
1200.54	208.62
1201.56	208.151
1202.57	207.814
1203.58	207.573
1204.6	207.14
1205.61	206.559
1206.62	206.068
1207.63	206.091
1208.64	206.3
1209.65	206.733
1210.66	207.835
1211.67	208.367
1212.68	207.876
1213.69	207.751
1214.7	207.857
1215.71	207.971
1216.72	204.163
1217.73	198.04
1218.74	195.129
1219.75	195.346
1220.76	199.409
1221.76	202.996
1222.77	205.899
1223.78	205.525
1224.79	205.424
1225.79	205.246
1226.8	205.031
1227.8	204.67
1228.81	204.09
1229.82	202.179
1230.82	201.495
1231.83	202.002
1232.83	199.445
1233.84	198.266
1234.84	197.144
1235.84	195.557
1236.85	192.694
1237.85	190.438
1238.85	187.832
1239.86	186.078
1240.86	183.686
1241.86	182.563
1242.86	182.558
1243.86	183.295
1244.87	184.202
1245.87	182.743
1246.87	181.499
1247.87	181.013
1248.87	180.882
1249.87	181.331
1250.87	181.804
1251.87	182.095
1252.87	182.074
1253.87	182.065
1254.86	182.046
1255.86	182.156
1256.86	181.683
1257.86	181.061
1258.86	180.236
1259.85	179.483
1260.85	179.035
1261.85	178.607
1262.84	178.086
1263.84	177.677
1264.84	177.453
1265.83	177.473
1266.83	178.116
1267.82	178.933
1268.82	179.802
1269.81	180.65
1270.81	181.109
1271.8	181.326
1272.8	181.644
1273.79	181.754
1274.78	181.578
1275.77	180.67
1276.77	179.208
1277.76	177.887
1278.75	177.154
1279.74	176.967
1280.74	177.253
1281.73	178.128
1282.72	180.002
1283.71	180.237
1284.7	180.192
1285.69	180.735
1286.68	181.187
1287.67	181.485
1288.66	180.54
1289.65	178.667
1290.64	177.428
1291.63	176.383
1292.61	175.778
1293.6	175.331
1294.59	174.788
1295.58	174.698
1296.56	173.809
1297.55	173.081
1298.54	172.943
1299.52	173.073
1300.51	173.266
1301.5	173.597
1302.48	173.47
1303.47	173.165
1304.45	172.932
1305.44	172.848
1306.42	172.575
1307.41	171.999
1308.39	171.394
1309.37	170.315
1310.36	168.925
1311.34	168.376
1312.32	168.352
1313.31	168.697
1314.29	168.831
1315.27	168.548
1316.25	168.523
1317.23	168.605
1318.22	169.152
1319.2	170.893
1320.18	172.434
1321.16	174.444
1322.14	176.461
1323.12	178.096
1324.1	179.573
1325.08	180.859
1326.06	181.012
1327.04	180.303
1328.01	178.865
1328.99	176.979
1329.97	174.896
1330.95	173.012
1331.93	171.291
1332.9	169.307
1333.88	167.085
1334.86	164.572
1335.83	161.812
1336.81	159.696
1337.79	158.017
1338.76	157.087
1339.74	156.003
1340.71	155.063
1341.69	154.633
1342.66	154.698
1343.64	154.997
1344.61	155.754
1345.58	156.287
1346.56	156.88
1347.53	157.63
1348.5	158.356
1349.48	158.158
1350.45	157.02
1351.42	156.069
1352.39	154.958
1353.36	154.807
1354.34	154.8
1355.31	154.838
1356.28	154.843
1357.25	154.375
1358.22	153.867
1359.19	152.912
1360.16	151.768
1361.13	150.929
1362.1	150.389
1363.07	150.069
1364.03	149.328
1365	149.087
1365.97	148.553
1366.94	147.963
1367.91	147.676
1368.87	147.548
1369.84	147.61
1370.81	147.499
1371.77	147.94
1372.74	148.284
1373.71	148.75
1374.67	150.109
1375.64	150.52
1376.6	150.576
1377.57	150.466
1378.53	150.219
1379.5	149.836
1380.46	149.345
1381.42	148.692
1382.39	148
1383.35	147.192
1384.31	146.34
1385.28	145.609
1386.24	145.137
1387.2	144.85
1388.16	145.232
1389.13	145.396
1390.09	145.282
1391.05	145.816
1392.01	145.871
1392.97	145.654
1393.93	145.162
1394.89	144.572
1395.85	143.849
1396.81	142.87
1397.77	141.871
1398.73	141.072
1399.69	140.29
1400.64	139.479
1401.6	139.359
1402.56	138.868
1403.52	138.412
1404.48	138.55
1405.43	138.209
1406.39	137.974
1407.35	138.092
1408.3	137.526
1409.26	137.07
1410.22	136.826
1411.17	136.492
1412.13	136.324
1413.08	136.855
1414.04	136.762
1414.99	136.262
1415.94	136.014
1416.9	135.563
1417.85	135.104
1418.81	135.354
1419.76	135.262
1420.71	135.664
1421.66	135.462
1422.62	136.037
1423.57	136.154
1424.52	136.403
1425.47	135.895
1426.42	135.518
1427.37	135.313
1428.33	134.702
1429.28	135.087
1430.23	135.96
1431.18	136.638
1432.13	137.844
1433.07	139.547
1434.02	139.839
1434.97	140.057
1435.92	140.309
1436.87	140.553
1437.82	140.72
1438.77	140.872
1439.71	140.859
1440.66	140.934
1441.61	140.93
1442.55	140.658
1443.5	140.179
1444.45	139.013
1445.39	137.296
1446.34	135.344
1447.28	133.41
1448.23	131.951
1449.18	130.9
1450.12	130.245
1451.06	130.304
1452.01	130.531
1452.95	130.82
1453.9	130.196
1454.84	129.907
1455.78	129.237
1456.72	128.437
1457.67	127.206
1458.61	126.828
1459.55	126.396
1460.49	126.377
1461.43	126.454
1462.38	127.107
1463.32	128.266
1464.26	129.034
1465.2	128.696
1466.14	128.451
1467.08	128.101
1468.02	127.454
1468.96	126.661
1469.9	125.281
1470.83	123.627
1471.77	122.422
1472.71	119.722
1473.65	117.757
1474.59	116.766
1475.53	116.193
1476.46	116.345
1477.4	117.289
1478.34	118.425
1479.27	119.879
1480.21	121.773
1481.14	122.437
1482.08	122.336
1483.02	122.651
1483.95	123.176
1484.89	123.798
1485.82	124.477
1486.75	125.125
1487.69	125.85
1488.62	126.742
1489.56	126.868
1490.49	126.489
1491.42	125.738
1492.35	125.051
1493.29	124.188
1494.22	123.378
1495.15	122.311
1496.08	121.008
1497.01	119.882
1497.95	119.092
1498.88	118.811
1499.81	118.578
1500.74	118.326
1501.67	118.457
1502.6	118.81
1503.53	119.21
1504.46	120.175
1505.39	120.784
1506.31	121.517
1507.24	122.61
1508.17	124.059
1509.1	126.073
1510.03	128.349
1510.95	130.145
1511.88	132.084
1512.81	134.281
1513.74	136.61
1514.66	139.22
1515.59	141.797
1516.51	144.097
1517.44	146.421
1518.37	148.458
1519.29	150.472
1520.22	152.198
1521.14	152.281
1522.06	150.756
1522.99	150.962
1523.91	154.355
1524.84	158.338
1525.76	159.743
1526.68	159.452
1527.61	158.162
1528.53	156.41
1529.45	154.055
1530.37	151.165
1531.29	147.66
1532.21	143.761
1533.14	141.142
1534.06	140.77
1534.98	139.81
1535.9	138.797
1536.82	136.775
1537.74	135.277
1538.66	133.813
1539.58	131.588
1540.5	129.135
1541.42	126.847
1542.33	125.452
1543.25	124.709
1544.17	124.432
1545.09	123.995
1546.01	124.085
1546.92	124.594
1547.84	125.04
1548.76	124.617
1549.67	123.994
1550.59	123.126
1551.51	121.756
1552.42	120.318
1553.34	119.121
1554.25	118.091
1555.17	116.907
1556.08	115.692
1557	114.716
1557.91	113.66
1558.82	112.621
1559.74	111.655
1560.65	111.159
1561.56	110.704
1562.48	110.447
1563.39	110.428
1564.3	110.331
1565.21	109.673
1566.13	108.755
1567.04	108.245
1567.95	107.635
1568.86	107.027
1569.77	107.175
1570.68	107.827
1571.59	108.133
1572.5	107.996
1573.41	107.842
1574.32	107.711
1575.23	107.213
1576.14	106.37
1577.05	106.033
1577.95	106.454
1578.86	106.052
1579.77	105.477
1580.68	105.388
1581.59	105.651
1582.49	107.317
1583.4	107.453
1584.31	107.685
1585.21	107.718
1586.12	107.741
1587.02	107.27
1587.93	106.719
1588.84	106.138
1589.74	105.77
1590.65	105.541
1591.55	105.712
1592.45	105.971
1593.36	106.406
1594.26	106.289
1595.17	106.243
1596.07	106.473
1596.97	106.703
1597.87	106.842
1598.78	107.385
1599.68	108.45
1600.58	109.877
1601.48	112.064
1602.38	114.858
1603.29	117.832
1604.19	119.007
1605.09	119.14
1605.99	117.432
1606.89	117.383
1607.79	117.24
1608.69	118.168
1609.59	117.541
1610.49	117.385
1611.38	117.232
1612.28	116.82
1613.18	112.907
1614.08	111.146
1614.98	110.29
1615.87	109.335
1616.77	108.139
1617.67	106.974
1618.57	105.819
1619.46	104.756
1620.36	103.9
1621.25	103.183
1622.15	102.721
1623.05	102.704
1623.94	102.781
1624.84	102.733
1625.73	103.042
1626.62	103.65
1627.52	104.644
1628.41	105.541
1629.31	105.788
1630.2	106.16
1631.09	106.477
1631.99	106.765
1632.87	107.01
1633.8	107.035
1634.73	106.841
1635.65	106.138
1636.58	105.44
1637.51	104.976
1638.44	104.468
1639.37	103.895
1640.29	103.215
1641.22	102.335
1642.15	101.166
1643.08	99.7724
1644	98.8532
1644.93	98.0056
1645.85	96.9608
1646.78	96.2361
1647.71	95.753
1648.63	95.3012
1649.56	94.7474
1650.48	94.7069
1651.41	94.9783
1652.33	95.059
1653.26	95.3601
1654.18	95.8226
1655.1	96.0182
1656.03	96.4924
1656.95	97.0553
1657.87	98.0459
1658.8	98.6401
1659.72	99.5386
1660.64	99.8192
1661.56	100.053
1662.49	99.5344
1663.41	98.476
1664.33	97.489
1665.25	96.9635
1666.17	96.5872
1667.09	96.3017
1668.02	95.9732
1668.94	95.5962
1669.86	94.9943
1670.78	94.3073
1671.7	93.9332
1672.62	93.8599
1673.53	93.4995
1674.45	93.9468
1675.37	94.2315
1676.29	94.4507
1677.21	94.1959
1678.13	94.3806
1679.05	94.1273
1679.96	93.7653
1680.88	93.3586
1681.8	93.0476
1682.72	93.199
1683.63	93.4079
1684.55	93.4385
1685.47	93.0929
1686.38	92.4834
1687.3	91.7604
1688.21	90.7944
1689.13	90.2148
1690.05	89.8306
1690.96	89.4469
1691.87	89.2847
1692.79	89.4087
1693.7	89.3176
1694.62	89.2709
1695.53	88.5495
1696.45	88.2046
1697.36	86.9289
1698.27	86.321
1699.19	86.2148
1700.1	86.4999
1701.01	87.3239
1701.92	88.3302
1702.84	89.4068
1703.75	90.3387
1704.66	91.1456
1705.57	91.774
1706.48	92.2601
1707.39	92.3465
1708.3	92.2818
1709.21	92.223
1710.12	89.8389
1711.03	87.8099
1711.95	86.4853
1712.85	85.2533
1713.76	83.9465
1714.67	82.7448
1715.58	81.5103
1716.49	80.575
1717.4	79.4637
1718.31	78.2822
1719.22	77.9017
1720.12	77.7009
1721.03	77.9771
1721.94	78.9033
1722.85	79.7104
1723.75	80.4136
1724.66	81.0016
1725.57	81.3133
1726.47	81.2074
1727.38	80.9801
1728.28	80.5281
1729.19	80.2742
1730.1	80.5774
1731	80.4556
1731.91	80.2167
1732.81	79.8232
1733.71	79.4762
1734.62	78.9929
1735.52	78.8694
1736.43	79.1136
1737.33	79.4985
1738.23	80.0258
1739.14	80.6309
1740.04	81.0922
1740.94	81.7622
1741.85	82.1305
1742.75	82.3452
1743.65	82.0788
1744.55	81.5215
1745.45	81.2779
1746.35	80.9244
1747.26	80.6259
1748.16	80.6211
1749.06	80.6347
1749.96	80.4168
1750.86	80.4052
1751.76	80.3826
1752.66	80.3337
1753.56	80.3228
1754.46	80.3951
1755.36	80.2058
1756.25	80.433
1757.15	80.6721
1758.05	81.4998
1758.95	81.6353
1759.85	81.2153
1760.75	81.0014
1761.64	80.3686
1762.54	80.0843
1763.44	79.7845
1764.33	79.5671
1765.23	79.5764
1766.13	79.6746
1767.02	79.4934
1767.92	78.9663
1768.82	78.4641
1769.71	78.0061
1770.61	77.931
1771.5	77.8412
1772.4	77.7652
1773.29	77.8901
1774.19	77.8861
1775.08	77.9758
1775.97	78.4503
1776.87	79.2315
1777.76	79.8036
1778.65	80.0496
1779.55	80.1532
1780.44	80.6694
1781.33	80.755
1782.23	80.7201
1783.12	80.3284
1784.01	80.0543
1784.9	79.7546
1785.79	79.5471
1786.68	79.162
1787.58	78.4908
1788.47	77.7083
1789.36	76.8793
1790.25	76.3709
1791.14	76.3049
1792.03	75.9051
1792.92	75.9365
1793.81	76.2178
1794.7	76.3627
1795.58	76.2149
1796.47	76.0844
1797.36	76.3939
1798.25	76.0258
1799.14	74.865
