Acq. time (s)=	15
Accumulations=	2
Range (cm-¹)=	600...1800
Windows=	2
Autofocus=	Off
AutoExposure=	Off
Spike filter=	Multiple accum.
Delay time (s)=	1
Binning=	1
Readout mode=	Signal
DeNoise=	Standard
ICS correction=	Off
Dark correction=	Off
Inst. Process=	Off
Instrument=	XploRA
Detector=	Syncerity
Objective=	x20LWD
Grating=	1200 gr/mm
Filter=	25%
Laser (nm)=	785 
Slit (µm)=	100 
Hole (µm)=	300 
Laser pol=	None
Raman pol=	None
Output=	Camera
StageXY=	Marzhauser
StageZ=	
X (µm)=	59.1
Y (µm)=	2340.2
Project=	
Sample=	
Site=	
Title=	CLs P3
Remark=	
Date=	15.10.2021 17:15
Operator=	
Power=	
Acquired=	15.10.2021 17:15:32
601.097	722.791
602.266	727.77
603.435	735.763
604.603	738.299
605.771	740.189
606.939	742.212
608.106	744.057
609.273	745.874
610.44	747.501
611.606	749.056
612.772	750.401
613.938	751.64
615.104	752.71
616.268	753.406
617.433	754.062
618.598	754.303
619.763	755.232
620.926	757.06
622.091	758.745
623.254	759.679
624.417	760.203
625.58	760.68
626.742	760.985
627.906	761.178
629.068	761.247
630.229	761.062
631.391	760.711
632.551	760.353
633.712	759.517
634.873	758.567
636.033	757.381
637.193	756.165
638.352	754.994
639.512	754.173
640.671	754.02
641.83	753.78
642.988	753.765
644.147	752.902
645.305	751.245
646.462	749.611
647.62	748.426
648.777	747.261
649.934	746.666
651.09	746.102
652.247	745.596
653.402	744.858
654.558	744.207
655.713	743.511
656.868	742.971
658.023	742.527
659.177	742.364
660.331	742.42
661.485	742.943
662.639	743.576
663.792	744.386
664.945	745.292
666.098	746.385
667.25	747.403
668.402	748.993
669.554	750.716
670.705	752.763
671.857	754.438
673.007	755.787
674.158	755.976
675.309	755.79
676.459	755.502
677.609	754.105
678.758	752.137
679.907	750.001
681.056	747.648
682.205	745.428
683.353	743.674
684.501	742.298
685.649	740.865
686.796	739.767
687.943	738.324
689.09	736.89
690.236	735.158
691.383	733.596
692.529	732.198
693.675	730.924
694.82	729.916
695.965	729.141
697.11	728.347
698.254	727.55
699.398	726.56
700.542	725.387
701.686	723.826
702.829	722.362
703.973	721.08
705.116	720.039
706.258	719.576
707.4	720.458
708.542	721.227
709.684	721.546
710.825	720.282
711.966	718.412
713.107	715.646
714.247	712.71
715.387	708.127
716.527	706.205
717.667	704.349
718.806	702.389
719.945	700.403
721.084	698.186
722.223	695.923
723.361	693.618
724.498	690.751
725.636	688.007
726.773	686.294
727.91	686.75
729.047	688.177
730.183	690.346
731.32	693.181
732.455	696.39
733.591	700.135
734.726	704.366
735.861	708.359
736.996	712.405
738.13	715.998
739.264	719.002
740.398	721.079
741.532	722.124
742.665	721.838
743.797	720.274
744.93	718.34
746.063	715.945
747.195	713.629
748.326	711.081
749.458	708.28
750.589	705.32
751.72	701.86
752.851	698.309
753.981	694.688
755.111	691.045
756.241	687.347
757.371	683.706
758.499	680.056
759.628	676.716
760.757	673.54
761.885	670.221
763.014	666.991
764.141	663.799
765.268	661.097
766.395	658.776
767.523	657.323
768.649	656.086
769.775	654.919
770.901	653.786
772.027	652.629
773.153	651.185
774.277	649.674
775.403	648.298
776.527	646.576
777.651	645.536
778.776	644.816
779.899	644.29
781.023	642.567
782.146	639.598
783.269	636.523
784.39	633.279
785.513	631.217
786.635	630.043
787.757	629.179
788.878	628.604
789.999	628.04
791.12	627.601
792.24	627.373
793.36	629.479
794.48	629.438
795.6	628.384
796.72	626.652
797.839	624.524
798.957	617.666
800.076	614.172
801.194	611.288
802.313	608.805
803.43	606.28
804.547	604.021
805.664	601.937
806.781	600.079
807.898	598.425
809.014	596.707
810.13	594.874
811.245	593.203
812.361	592.166
813.476	593.56
814.591	595.534
815.705	597.051
816.819	597.816
817.933	598.493
819.047	598.484
820.16	602.299
821.273	604.729
822.386	606.134
823.498	606.488
824.611	605.311
825.723	602.786
826.835	597.822
827.946	595.029
829.057	592.648
830.167	590.515
831.278	588.174
832.388	586.021
833.498	583.949
834.608	582.995
835.717	582.439
836.826	582.341
837.935	582.213
839.043	582.273
840.152	582.069
841.26	581.965
842.367	581.71
843.474	581.584
844.582	581.497
845.688	581.11
846.794	580.487
847.901	579.326
849.006	577.491
850.112	574.166
851.217	570.871
852.322	567.515
853.428	564.623
854.532	562.438
855.636	560.792
856.74	559.732
857.843	559.002
858.947	558.635
860.05	559.175
861.153	559.834
862.255	560.549
863.358	561.157
864.459	561.136
865.561	560.62
866.662	559.896
867.763	558.883
868.864	558.08
869.964	555.917
871.065	553.637
872.165	551.315
873.264	548.911
874.363	546.506
875.463	544.157
876.561	542.965
877.66	541.396
878.758	540.06
879.856	538.866
880.954	537.861
882.051	536.991
883.148	536.307
884.244	535.907
885.341	535.71
886.437	535.681
887.533	535.859
888.629	535.975
889.724	536.938
890.819	537.784
891.914	538.652
893.009	539.28
894.102	539.016
895.197	538.777
896.29	538.513
897.384	538.114
898.477	537.706
899.569	537.253
900.662	536.884
901.754	536.682
902.846	536.537
903.938	536.912
905.029	537.481
906.12	539.578
907.211	537.175
908.301	534.179
909.391	522.342
910.481	526.503
911.571	539.455
912.66	545.561
913.749	544.794
914.838	543.887
915.927	540.844
917.015	536.668
918.103	531.83
919.191	526.169
920.279	521.36
921.365	518.434
922.452	515.911
923.539	514.03
924.625	511.391
925.711	508.642
926.796	505.986
927.882	503.596
928.967	502.557
930.052	501.916
931.136	501.217
932.221	500.449
933.305	499.476
934.389	497.999
935.472	496.051
936.555	493.865
937.638	491.471
938.721	488.599
939.802	485.736
940.885	482.894
941.966	480.233
943.048	478.266
944.129	476.459
945.209	475.039
946.29	473.91
947.371	472.864
948.451	472.15
949.531	471.544
950.61	471.251
951.689	471.054
952.768	471.034
953.847	470.931
954.925	470.606
956.003	469.524
957.081	469.908
958.158	474.305
959.236	477.427
960.312	478.326
961.389	473.139
962.465	470.855
963.542	468.743
964.617	465.499
965.693	463.678
966.768	465.101
967.843	466.997
968.918	468.237
969.991	468.426
971.066	468.277
972.139	468.269
973.213	468.625
974.286	469.636
975.359	470.672
976.432	471.989
977.504	473.562
978.576	475.1
979.648	477.02
980.72	478.822
981.791	480.404
982.862	481.688
983.933	482.641
985.004	482.523
986.074	481.699
987.143	480.74
988.213	479.568
989.282	478.272
990.351	476.975
991.42	475.946
992.489	474.885
993.557	473.779
994.624	472.653
995.692	471.52
996.76	470.807
997.827	470.134
998.893	469.417
999.96	468.482
1001.03	467.456
1002.09	466.217
1003.16	464.246
1004.22	462.228
1005.29	460.287
1006.35	457.467
1007.42	454.598
1008.48	451.68
1009.54	448.776
1010.61	445.918
1011.67	443.296
1012.74	441.074
1013.8	439.086
1014.86	437.442
1015.92	435.996
1016.99	434.911
1018.05	433.813
1019.11	433.184
1020.17	432.601
1021.23	432.092
1022.29	431.589
1023.35	430.546
1024.41	429.452
1025.47	428.137
1026.53	426.137
1027.59	423.563
1028.65	421.034
1029.71	418.602
1030.77	416.386
1031.82	415.199
1032.88	414.028
1033.94	414.578
1035	415.576
1036.05	416.862
1037.11	418.221
1038.17	419.272
1039.22	420.109
1040.28	420.766
1041.33	421.345
1042.39	421.747
1043.44	422.042
1044.5	422.216
1045.55	422.277
1046.61	422.031
1047.66	421.328
1048.71	419.019
1049.77	415.88
1050.82	412.21
1051.87	406.564
1052.93	403.812
1053.98	403.185
1055.03	404.307
1056.08	408.842
1057.13	410.337
1058.18	410.964
1059.23	410.957
1060.29	411.053
1061.34	410.583
1062.39	409.89
1063.44	408.843
1064.48	407.775
1065.53	406.936
1066.58	406.38
1067.63	406.399
1068.68	406.032
1069.73	405.435
1070.78	404.539
1071.82	403.551
1072.87	402.568
1073.92	401.595
1074.96	400.517
1076.01	399.216
1077.06	397.757
1078.1	395.816
1079.15	392.92
1080.19	389.512
1081.24	386.188
1082.28	388.762
1083.33	387.688
1084.37	386.601
1085.41	385.668
1086.46	385.089
1087.5	384.622
1088.54	384.329
1089.59	384.247
1090.63	384.325
1091.67	384.163
1092.71	384.101
1093.76	383.918
1094.8	383.6
1095.84	383.406
1096.88	383.824
1097.92	384.263
1098.96	385.079
1100	385.716
1101.04	385.982
1102.08	385.481
1103.12	384.917
1104.16	384.084
1105.19	383.162
1106.23	382.111
1107.27	380.994
1108.31	379.762
1109.35	378.757
1110.38	377.738
1111.42	376.642
1112.46	375.277
1113.49	373.958
1114.53	372.607
1115.56	371.221
1116.6	370.511
1117.64	370.72
1118.67	370.764
1119.71	370.815
1120.74	370.603
1121.77	370.198
1122.81	369.374
1123.84	368.321
1124.87	367.554
1125.91	366.117
1126.94	362.871
1127.97	358.458
1129	359.047
1130.04	362.613
1131.07	371.461
1132.1	375.827
1133.13	380.003
1134.16	382.888
1135.19	383.606
1136.22	385.831
1137.25	388.028
1138.28	389.958
1139.31	391.691
1140.34	393.313
1141.37	394.83
1142.4	396.226
1143.43	397.514
1144.45	398.685
1145.48	399.747
1146.51	400.843
1147.54	401.777
1148.56	402.81
1149.59	403.708
1150.62	404.585
1151.64	405.335
1152.67	405.9
1153.69	406.604
1154.72	406.979
1155.74	406.754
1156.77	403.904
1157.79	400.317
1158.82	395.816
1159.84	390.732
1160.86	385.447
1161.89	380.417
1162.91	375.845
1163.93	371.382
1164.96	367.343
1165.98	363.727
1167	360.648
1168.02	358.194
1169.04	356.205
1170.06	354.881
1171.09	354.183
1172.11	354.054
1173.13	354.528
1174.15	355.54
1175.17	357.017
1176.19	358.863
1177.2	361.102
1178.22	363.696
1179.24	366.333
1180.26	368.89
1181.28	371.349
1182.3	373.357
1183.31	374.37
1184.33	374.823
1185.35	374.683
1186.37	373.538
1187.38	371.325
1188.4	367.942
1189.41	359.035
1190.43	355.137
1191.45	350.661
1192.46	346.171
1193.47	342.187
1194.49	339.481
1195.5	337.27
1196.52	335.27
1197.53	333.714
1198.55	331.789
1199.56	329.947
1200.57	328.597
1201.58	327.586
1202.6	327.159
1203.61	327.247
1204.62	328.137
1205.63	329.282
1206.64	330.669
1207.65	332.18
1208.66	333.7
1209.67	335.095
1210.68	336.243
1211.69	337.113
1212.7	338.309
1213.71	339.416
1214.72	340.171
1215.73	340.722
1216.74	340.683
1217.75	340.073
1218.76	338.604
1219.76	337.058
1220.77	335.245
1221.78	333.424
1222.79	331.705
1223.79	330.173
1224.8	328.817
1225.8	328.055
1226.81	327.737
1227.82	327.689
1228.82	327.717
1229.83	327.754
1230.83	327.599
1231.83	327.119
1232.84	326.566
1233.84	325.709
1234.85	324.244
1235.85	322.26
1236.85	319.535
1237.86	316.6
1238.86	313.521
1239.86	310.531
1240.86	307.672
1241.86	304.804
1242.86	302.2
1243.87	299.898
1244.87	297.741
1245.87	296.262
1246.87	295.524
1247.87	294.844
1248.87	294.427
1249.87	294.163
1250.87	294.161
1251.87	294.243
1252.86	294.597
1253.86	296.058
1254.86	297.762
1255.86	299.586
1256.86	301.231
1257.85	302.434
1258.85	303.105
1259.85	303.396
1260.84	303.293
1261.84	302.801
1262.84	301.896
1263.83	300.613
1264.83	298.963
1265.82	296.842
1266.82	294.494
1267.81	291.797
1268.81	289.155
1269.8	287.005
1270.79	285.849
1271.79	285.467
1272.78	286.413
1273.77	287.754
1274.77	289.259
1275.76	290.499
1276.75	291.673
1277.74	292.665
1278.73	294.062
1279.73	295.339
1280.72	296.579
1281.71	297.655
1282.7	298.289
1283.69	298.695
1284.68	298.534
1285.67	298.236
1286.66	297.714
1287.65	297.154
1288.64	296.514
1289.62	295.68
1290.61	294.804
1291.6	294.103
1292.59	293.082
1293.58	291.516
1294.56	289.822
1295.55	287.951
1296.54	286.307
1297.52	284.789
1298.51	283.66
1299.5	282.62
1300.48	282.109
1301.47	281.695
1302.45	281.382
1303.44	281.062
1304.42	280.884
1305.41	279.73
1306.39	278.388
1307.37	277.131
1308.36	276.039
1309.34	275.082
1310.32	274.489
1311.31	274.094
1312.29	274.012
1313.27	274.146
1314.25	274.621
1315.23	275.406
1316.21	276.418
1317.2	277.791
1318.18	279.333
1319.16	281.138
1320.14	283.192
1321.12	285.486
1322.1	287.767
1323.08	289.433
1324.06	290.345
1325.03	290.526
1326.01	290.202
1326.99	289.536
1327.97	288.458
1328.95	287.145
1329.92	285.426
1330.9	283.402
1331.88	281.246
1332.86	278.689
1333.83	275.997
1334.81	273.289
1335.78	270.612
1336.76	268.103
1337.74	266.269
1338.71	264.838
1339.69	263.33
1340.66	262.145
1341.63	260.627
1342.61	259.023
1343.58	257.502
1344.56	255.996
1345.53	254.916
1346.5	254.642
1347.47	254.731
1348.45	254.829
1349.42	255.005
1350.39	255.214
1351.36	255.183
1352.33	255.18
1353.31	255.051
1354.28	254.882
1355.25	254.756
1356.22	254.594
1357.19	254.251
1358.16	253.645
1359.13	252.867
1360.09	251.733
1361.06	249.213
1362.03	246.745
1363	244.512
1363.97	243.177
1364.94	242.051
1365.9	241.329
1366.87	240.965
1367.84	240.929
1368.81	241.129
1369.77	241.547
1370.74	242.234
1371.7	243.023
1372.67	243.787
1373.64	244.42
1374.6	245.002
1375.57	245.098
1376.53	245.069
1377.49	244.771
1378.46	244.209
1379.42	243.442
1380.39	242.76
1381.35	242.179
1382.31	241.782
1383.28	241.674
1384.24	241.432
1385.2	241.325
1386.16	241.097
1387.12	240.844
1388.09	240.485
1389.05	240.098
1390.01	239.565
1390.97	239.008
1391.93	238.274
1392.89	237.514
1393.85	236.527
1394.81	235.376
1395.77	234.159
1396.73	232.681
1397.68	231.173
1398.64	229.827
1399.6	228.533
1400.56	227.97
1401.52	227.492
1402.47	227.305
1403.43	227.28
1404.39	227.587
1405.35	227.96
1406.3	228.383
1407.26	228.854
1408.21	229.179
1409.17	229.397
1410.12	229.579
1411.08	229.147
1412.03	228.572
1412.99	227.954
1413.94	227.326
1414.9	226.723
1415.85	226.216
1416.8	225.759
1417.76	225.917
1418.71	226.062
1419.66	226.275
1420.62	226.739
1421.57	227.266
1422.52	228.065
1423.47	228.94
1424.42	229.963
1425.37	231.031
1426.32	231.967
1427.27	231.828
1428.22	229.641
1429.17	229.985
1430.12	230.498
1431.07	231.096
1432.02	231.626
1432.97	232.189
1433.92	232.31
1434.87	232.359
1435.82	232.295
1436.76	232.068
1437.71	231.846
1438.66	231.498
1439.61	231.141
1440.55	230.86
1441.5	230.452
1442.45	230.15
1443.39	229.945
1444.34	229.8
1445.28	229.576
1446.23	229.268
1447.17	228.917
1448.12	228.462
1449.06	227.837
1450.01	226.989
1450.95	225.581
1451.89	224.116
1452.84	222.206
1453.78	220.223
1454.72	218.191
1455.67	216.186
1456.61	214.244
1457.55	212.652
1458.49	211.18
1459.43	210.028
1460.37	208.968
1461.32	208.075
1462.26	207.368
1463.2	206.759
1464.14	206.337
1465.08	206.206
1466.02	206.3
1466.96	206.479
1467.89	206.75
1468.83	206.98
1469.77	207.273
1470.71	207.567
1471.65	207.825
1472.59	208.007
1473.52	207.975
1474.46	207.836
1475.4	207.59
1476.33	206.83
1477.27	205.772
1478.21	204.821
1479.14	203.821
1480.08	202.958
1481.01	202.597
1481.95	202.314
1482.88	202.656
1483.82	203.081
1484.75	203.365
1485.69	203.628
1486.62	203.731
1487.56	203.248
1488.49	202.788
1489.42	201.996
1490.35	201.059
1491.29	200.021
1492.22	198.948
1493.15	197.828
1494.08	196.388
1495.01	194.961
1495.94	193.622
1496.88	192.415
1497.81	192.107
1498.74	192.597
1499.67	193.267
1500.6	194.197
1501.53	195.41
1502.46	196.94
1503.39	197.927
1504.31	198.934
1505.24	200.025
1506.17	201.356
1507.1	202.731
1508.03	204.495
1508.95	206.456
1509.88	209.163
1510.81	212.061
1511.74	215.132
1512.66	218.537
1513.59	222.084
1514.51	225.901
1515.44	229.99
1516.36	234.216
1517.29	236.829
1518.21	239.785
1519.14	244.195
1520.06	249.975
1520.99	256.798
1521.91	264.018
1522.84	270.185
1523.76	274.838
1524.68	276.944
1525.6	274.131
1526.53	263.254
1527.45	256.97
1528.37	251.707
1529.29	247.635
1530.21	244.407
1531.14	241.385
1532.06	238.882
1532.98	234.814
1533.9	230.638
1534.82	226.584
1535.74	222.867
1536.66	219.509
1537.58	216.519
1538.5	213.582
1539.41	211.177
1540.33	209.551
1541.25	208.296
1542.17	207.08
1543.09	205.773
1544.01	204.987
1544.92	204.763
1545.84	205.027
1546.76	205.678
1547.67	206.478
1548.59	207.279
1549.51	207.918
1550.42	208.092
1551.34	208.383
1552.25	207.765
1553.17	206.752
1554.08	205.327
1555	203.656
1555.91	201.897
1556.82	200.346
1557.74	198.79
1558.65	197.306
1559.56	195.904
1560.48	194.61
1561.39	193.393
1562.3	192.275
1563.21	191.242
1564.13	190.232
1565.04	189.524
1565.95	188.862
1566.86	188.45
1567.77	188.236
1568.68	188.083
1569.59	188.098
1570.5	188.168
1571.41	188.308
1572.32	188.417
1573.23	188.531
1574.14	188.517
1575.05	188.705
1575.96	189.014
1576.86	189.354
1577.77	189.689
1578.68	190.023
1579.59	190.31
1580.49	190.574
1581.4	190.463
1582.31	190.387
1583.21	190.446
1584.12	190.518
1585.03	190.679
1585.93	190.813
1586.84	190.905
1587.74	190.991
1588.65	191.042
1589.55	191.063
1590.46	191.042
1591.36	191.015
1592.26	190.867
1593.17	191.017
1594.07	191.757
1594.97	192.646
1595.88	193.566
1596.78	194.888
1597.68	196.564
1598.58	198.333
1599.48	200.174
1600.39	201.85
1601.29	203.221
1602.19	204.302
1603.09	204.943
1603.99	205.074
1604.89	204.977
1605.79	204.839
1606.69	204.624
1607.59	204.175
1608.49	203.516
1609.39	202.808
1610.28	202.126
1611.18	201.437
1612.08	200.824
1612.98	200.363
1613.88	199.882
1614.77	199.454
1615.67	199.036
1616.57	198.64
1617.46	198.224
1618.36	197.815
1619.26	197.45
1620.15	196.938
1621.05	196.246
1621.94	195.494
1622.84	194.747
1623.73	194.005
1624.63	193.324
1625.52	192.697
1626.41	192.144
1627.31	191.661
1628.2	191.279
1629.09	190.953
1629.99	190.872
1630.88	191.342
1631.77	191.674
1632.65	191.848
1633.58	191.916
1634.51	192.114
1635.43	192.312
1636.36	192.474
1637.29	192.464
1638.22	191.757
1639.15	190.674
1640.07	189.637
1641	188.581
1641.93	187.786
1642.85	186.887
1643.78	185.971
1644.7	185.188
1645.63	184.713
1646.55	184.675
1647.48	184.744
1648.41	185.012
1649.33	185.422
1650.25	185.937
1651.18	186.667
1652.1	187.451
1653.03	188.267
1653.95	188.907
1654.87	188.801
1655.8	188.25
1656.72	187.812
1657.64	187.566
1658.56	187.431
1659.49	187.494
1660.41	187.534
1661.33	187.652
1662.25	187.44
1663.17	187.101
1664.1	186.581
1665.02	185.929
1665.94	185.196
1666.86	184.421
1667.78	183.588
1668.7	182.859
1669.62	182.018
1670.54	181.136
1671.46	180.156
1672.38	179.183
1673.29	177.944
1674.21	177.302
1675.13	178.138
1676.05	178.462
1676.97	178.373
1677.89	179.493
1678.8	180.042
1679.72	180.188
1680.64	179.707
1681.55	178.122
1682.47	176.357
1683.39	174.934
1684.3	173.599
1685.22	172.471
1686.14	171.471
1687.05	174.721
1687.97	174.834
1688.88	174.839
1689.8	175.175
1690.71	175.446
1691.63	175.687
1692.54	175.779
1693.45	175.759
1694.37	175.582
1695.28	175.262
1696.19	174.758
1697.11	174.092
1698.02	173.39
1698.93	172.561
1699.84	171.954
1700.76	171.493
1701.67	171.336
1702.58	170.868
1703.49	170.364
1704.4	169.828
1705.31	169.289
1706.22	168.654
1707.14	167.981
1708.05	167.335
1708.96	166.69
1709.87	166.099
1710.78	165.481
1711.68	164.864
1712.59	164.262
1713.5	163.678
1714.41	163.105
1715.32	162.564
1716.23	162.02
1717.14	161.504
1718.04	161.004
1718.95	160.561
1719.86	160.071
1720.77	159.642
1721.67	159.21
1722.58	158.826
1723.49	158.451
1724.39	158.11
1725.3	157.834
1726.21	157.589
1727.11	157.442
1728.02	157.382
1728.92	157.383
1729.83	157.486
1730.73	158.122
1731.64	158.683
1732.54	159.322
1733.44	159.968
1734.35	160.623
1735.25	161.23
1736.15	161.12
1737.06	161.245
1737.96	161.032
1738.86	160.343
1739.77	159.072
1740.67	157.66
1741.57	155.994
1742.47	154.275
1743.37	152.755
1744.27	151.737
1745.18	150.921
1746.08	149.676
1746.98	148.979
1747.88	148.809
1748.78	149.041
1749.68	149.624
1750.58	150.468
1751.48	151.444
1752.38	152.391
1753.28	153.437
1754.17	154.101
1755.07	154.474
1755.97	154.191
1756.87	152.783
1757.77	151.327
1758.66	150.063
1759.56	148.981
1760.46	148.016
1761.36	147.216
1762.25	146.546
1763.15	146.092
1764.05	145.794
1764.94	145.735
1765.84	145.886
1766.73	146.203
1767.63	146.768
1768.53	147.269
1769.42	147.724
1770.32	147.504
1771.21	147.078
1772.1	146.474
1773	145.595
1773.89	144.677
1774.79	143.821
1775.68	143.244
1776.57	142.978
1777.47	142.865
1778.36	143.048
1779.25	143.246
1780.14	143.472
1781.04	143.064
1781.93	142.474
1782.82	141.838
1783.71	141.136
1784.6	140.404
1785.49	139.818
1786.38	139.153
1787.27	138.492
1788.17	137.733
1789.06	137.01
1789.95	136.213
1790.84	135.25
1791.72	134.287
1792.61	133.465
1793.5	132.77
1794.39	132.275
1795.28	132.741
1796.17	133.173
1797.06	133.796
1797.94	133.655
1798.83	132.239
1799.72	132.59
