Acq. time (s)=	15
Accumulations=	2
Range (cm-¹)=	600...1800
Windows=	2
Autofocus=	Off
AutoExposure=	Off
Spike filter=	Multiple accum.
Delay time (s)=	1
Binning=	1
Readout mode=	Signal
DeNoise=	Standard
ICS correction=	Off
Dark correction=	Off
Inst. Process=	Off
Instrument=	XploRA
Detector=	Syncerity
Objective=	x20LWD
Grating=	1200 gr/mm
Filter=	25%
Laser (nm)=	785 
Slit (µm)=	100 
Hole (µm)=	300 
Laser pol=	None
Raman pol=	None
Output=	Camera
StageXY=	Marzhauser
StageZ=	
X (µm)=	-5059.1
Y (µm)=	-3196.1
Project=	
Sample=	
Site=	
Title=	Cmm1 s-t
Remark=	
Date=	22.07.2022 02:02
Acquired=	22.07.2022 02:02:39
600.839	677.834
602.009	682.176
603.178	688.368
604.347	695.655
605.516	702.892
606.684	709.896
607.852	716.629
609.02	723.051
610.187	729.005
611.355	734.594
612.521	739.755
613.688	744.938
614.854	749.765
616.02	754.328
617.185	758.535
618.351	762.294
619.516	765.707
620.681	768.785
621.846	770.936
623.009	772.233
624.174	773.629
625.337	774.827
626.501	775.871
627.664	776.047
628.826	775.889
629.988	776.813
631.151	778.497
632.313	780.704
633.474	782.077
634.635	782.663
635.797	783.217
636.958	783.789
638.117	784.444
639.278	785.117
640.437	786.129
641.597	787.142
642.756	788.266
643.915	789.491
645.074	790.417
646.233	790.236
647.391	787.814
648.548	786.664
649.706	785.819
650.863	785.571
652.02	785.148
653.176	785.381
654.333	785.45
655.489	785.347
656.645	786.285
657.8	786.94
658.955	787.536
660.11	788.018
661.264	788.939
662.419	788.769
663.573	788.555
664.727	787.635
665.88	787.806
667.033	787.525
668.186	787.776
669.338	787.937
670.491	787.202
671.643	787.363
672.794	787.504
673.945	788.068
675.096	789.199
676.247	790.324
677.398	791.92
678.548	793.806
679.698	795.724
680.847	797.176
681.997	798.19
683.146	799.496
684.294	800.996
685.443	801.492
686.591	802.223
687.739	802.574
688.887	803.317
690.034	802.954
691.181	802.249
692.328	796.75
693.474	796.438
694.62	796.373
695.766	796.431
696.911	796.937
698.057	797.109
699.202	797.216
700.346	798.695
701.49	798.976
702.635	797.916
703.779	795.825
704.922	794.136
706.065	792.682
707.208	791.518
708.351	787.903
709.493	784.835
710.635	782.136
711.776	780.9
712.918	779.032
714.059	778.157
715.2	777.428
716.341	777.518
717.481	777.425
718.621	778.224
719.761	780.149
720.9	777.357
722.04	775.032
723.178	772.986
724.317	771.33
725.455	770.092
726.594	769.37
727.731	768.937
728.868	768.936
730.005	769.588
731.142	769.007
732.279	768.035
733.415	766.911
734.551	766.3
735.686	766.42
736.822	768.428
737.957	770.939
739.092	773.064
740.226	775.03
741.36	775.898
742.495	776.852
743.628	778.361
744.762	777.931
745.895	776.868
747.027	774.752
748.16	771.983
749.292	768.541
750.423	766.182
751.555	764.511
752.686	762.511
753.817	761.32
754.949	760.769
756.079	758.26
757.209	755.503
758.339	752.426
759.469	749.649
760.597	746.059
761.727	741.45
762.856	736.306
763.984	732.024
765.112	728.352
766.24	724.896
767.367	720.329
768.494	717.07
769.622	715.216
770.749	712.275
771.874	710.199
773.001	709.384
774.127	707.976
775.253	705.333
776.377	703.113
777.503	701.4
778.627	698.436
779.751	695.646
780.876	693.463
782	692.365
783.123	690.937
784.246	689.132
785.37	688.089
786.492	687.63
787.614	687.544
788.737	686.389
789.858	684.904
790.979	683.328
792.101	682.173
793.222	680.667
794.342	679.123
795.463	677.136
796.583	674.647
797.702	671.567
798.822	666.854
799.942	664.254
801.06	660.837
802.179	657.855
803.297	656.617
804.415	645.767
805.533	654.817
806.651	657.286
807.768	656.969
808.885	657.461
810.001	657.425
811.118	658.837
812.233	659.531
813.349	660.441
814.464	660.994
815.58	661.572
816.695	662.656
817.809	662.687
818.924	660.529
820.038	660.391
821.152	658.271
822.265	656.383
823.378	653.893
824.491	650.818
825.604	647.715
826.716	643.965
827.828	639.918
828.94	636.848
830.051	635.475
831.162	639.595
832.273	639.397
833.383	639.409
834.494	637.48
835.604	640.557
836.714	640.828
837.823	640.962
838.932	641.437
840.041	641.159
841.15	639.632
842.258	638.076
843.366	634.57
844.474	631.004
845.581	627.822
846.688	625.543
847.795	623.826
848.901	622.62
850.008	621.733
851.115	621.233
852.22	620.973
853.325	621.3
854.43	621.781
855.536	620.867
856.64	619.367
857.745	617.531
858.848	615.566
859.952	613.333
861.055	610.849
862.158	608.416
863.261	605.699
864.364	603.938
865.466	602.736
866.568	601.754
867.67	602.053
868.771	602.142
869.873	601.25
870.973	600.464
872.074	600.097
873.174	598.039
874.274	595.845
875.374	593.65
876.473	591.709
877.572	589.034
878.671	587.568
879.77	585.297
880.868	583.762
881.966	582.519
883.064	580.136
884.161	576.913
885.258	573.53
886.356	572.157
887.452	571.39
888.548	570.903
889.645	570.602
890.74	569.815
891.836	569.098
892.931	568.917
894.025	568.899
895.12	569.06
896.214	569.233
897.308	569.335
898.402	569.156
899.495	567.379
900.588	567.001
901.681	566.235
902.774	566.535
903.866	565.811
904.958	566.118
906.05	566.461
907.142	567.894
908.233	570.207
909.324	572.35
910.414	575.482
911.504	576.812
912.594	578.031
913.684	578.4
914.774	578.214
915.863	577.936
916.952	578.331
918.041	578.917
919.129	577.549
920.217	574.846
921.305	572.596
922.392	570.987
923.48	569.455
924.567	566.081
925.653	560.159
926.74	555.046
927.825	549.107
928.911	544.708
929.997	541.229
931.082	537.082
932.166	533.327
933.252	529.115
934.336	525.674
935.42	524.118
936.504	523.036
937.587	522.733
938.671	523.396
939.753	524.265
940.836	524.64
941.919	524.269
943	523.693
944.082	523.334
945.163	522.674
946.245	521.555
947.326	520.573
948.406	519.642
949.487	518.762
950.567	518.06
951.647	517.877
952.727	516.018
953.805	514.586
954.885	512.935
955.964	511.892
957.042	511.21
958.12	511.055
959.198	510.59
960.276	509.237
961.352	507.953
962.43	505.148
963.507	503.638
964.583	502.721
965.659	501.775
966.735	501.332
967.81	500.97
968.885	500.508
969.961	500.256
971.036	500.158
972.11	500.883
973.184	501.19
974.258	501.651
975.332	503.134
976.405	504.059
977.478	504.967
978.551	505.289
979.624	505.332
980.696	505.603
981.767	506.169
982.839	508.01
983.911	509.697
984.982	511.415
986.052	512.973
987.123	514.333
988.193	514.98
989.263	515.632
990.333	513.314
991.403	511.029
992.471	509.009
993.54	507.459
994.608	506.103
995.677	505.21
996.745	504.645
997.812	504.46
998.88	504.721
999.947	505.532
1001.01	505.962
1002.08	504.42
1003.15	503.711
1004.21	502.531
1005.28	500.316
1006.34	498.094
1007.41	494.28
1008.47	491.047
1009.54	488.23
1010.6	485.567
1011.67	483.155
1012.73	480.629
1013.79	478.571
1014.86	475.254
1015.92	472.757
1016.98	470.323
1018.05	468.878
1019.11	467.324
1020.17	465.612
1021.23	462.863
1022.29	460.964
1023.35	458.717
1024.41	457.236
1025.47	456.067
1026.53	454.747
1027.59	453.56
1028.65	451.885
1029.71	449.722
1030.77	447.533
1031.83	445.495
1032.89	443.166
1033.95	442.074
1035	442.155
1036.06	442.432
1037.12	443.339
1038.18	443.467
1039.23	444.119
1040.29	444.608
1041.35	444.906
1042.4	444.683
1043.46	444.475
1044.51	444.021
1045.57	442.939
1046.62	442.006
1047.68	441.154
1048.73	439.395
1049.79	438.507
1050.84	437.463
1051.89	435.995
1052.95	434.474
1054	432.657
1055.05	431.392
1056.1	430.008
1057.16	429.604
1058.21	429.001
1059.26	428.137
1060.31	427.391
1061.36	427.164
1062.41	428.003
1063.46	428.738
1064.51	429.54
1065.56	430.906
1066.61	432.238
1067.66	433.047
1068.71	432.048
1069.76	429.377
1070.81	426.723
1071.85	424.652
1072.9	423.395
1073.95	422.233
1075	421.631
1076.04	421.825
1077.09	419.749
1078.14	417.153
1079.18	414.942
1080.23	412.909
1081.27	411.694
1082.32	410.951
1083.36	409.886
1084.41	409.069
1085.45	408.734
1086.5	409.293
1087.54	409.709
1088.59	410.573
1089.63	411.047
1090.67	411.394
1091.71	409.697
1092.76	408.943
1093.8	408.179
1094.84	407.788
1095.88	407.602
1096.92	407.539
1097.97	407.586
1099.01	407.133
1100.05	403.941
1101.09	400.162
1102.13	400.103
1103.17	400.546
1104.21	402.138
1105.25	404.268
1106.28	406.144
1107.32	408.058
1108.36	408.631
1109.4	407.805
1110.44	407.067
1111.47	402.743
1112.51	401.134
1113.55	399.786
1114.59	399.715
1115.62	398.444
1116.66	397.02
1117.69	395.542
1118.73	393.582
1119.77	391.448
1120.8	389.786
1121.84	388.298
1122.87	387.209
1123.9	385.901
1124.94	385.59
1125.97	384.94
1127	383.668
1128.04	383.035
1129.07	382.699
1130.1	382.205
1131.13	381.49
1132.17	381.912
1133.2	384.371
1134.23	386.464
1135.26	390.17
1136.29	394.144
1137.32	398.431
1138.35	400.399
1139.38	401.594
1140.41	402.717
1141.44	403.906
1142.47	405.07
1143.5	406.194
1144.53	407.284
1145.56	408.412
1146.59	409.286
1147.61	410.27
1148.64	411.426
1149.67	409.026
1150.7	410.72
1151.72	413.209
1152.75	416.482
1153.77	422.439
1154.8	431.176
1155.83	435.746
1156.85	436.708
1157.88	436.6
1158.9	434.987
1159.93	432.675
1160.95	429.213
1161.97	423.427
1163	411.743
1164.02	397.276
1165.04	388.436
1166.07	383.104
1167.09	377.566
1168.11	377.58
1169.13	376.072
1170.16	374.058
1171.18	372.367
1172.2	371.351
1173.22	371.78
1174.24	371.654
1175.26	371.632
1176.28	372.708
1177.3	374.808
1178.32	377.61
1179.34	380.596
1180.36	383.21
1181.38	384.297
1182.4	384.901
1183.41	385.275
1184.43	385.566
1185.45	385.835
1186.47	385.993
1187.48	387.132
1188.5	386.036
1189.52	383.944
1190.53	381.189
1191.55	377.906
1192.56	374.325
1193.58	370.259
1194.59	365.75
1195.61	361.154
1196.62	357.08
1197.64	354.122
1198.65	351.509
1199.67	350.495
1200.68	350.707
1201.69	351.027
1202.71	349.799
1203.72	348.392
1204.73	347.282
1205.74	347.098
1206.76	346.976
1207.77	347.119
1208.78	348.212
1209.79	348.672
1210.8	349.112
1211.81	349.73
1212.82	350.01
1213.83	349.627
1214.84	349.111
1215.85	348.612
1216.86	349.3
1217.87	349.824
1218.88	350.287
1219.88	351.163
1220.89	351.805
1221.9	352.463
1222.91	352.927
1223.92	353.442
1224.92	353.487
1225.93	352.11
1226.93	350.972
1227.94	350.411
1228.95	349.478
1229.95	348.18
1230.96	346.772
1231.96	344.953
1232.97	342.473
1233.97	339.681
1234.98	336.594
1235.98	333.916
1236.98	331.94
1237.99	330.124
1238.99	328.139
1239.99	326.295
1241	324.324
1242	322.419
1243	318.828
1244	315.868
1245	314.075
1246	312.679
1247.01	311.326
1248.01	309.992
1249.01	308.864
1250.01	308.087
1251.01	308.236
1252.01	309.032
1253	310.867
1254	309.347
1255	308.835
1256	308.686
1257	308.494
1258	308.47
1258.99	308.376
1259.99	308.178
1260.99	307.898
1261.99	307.681
1262.98	307.535
1263.98	307.362
1264.98	307.291
1265.97	307.161
1266.97	306.988
1267.96	306.817
1268.96	306.575
1269.95	305.984
1270.95	305.659
1271.94	305.352
1272.93	304.949
1273.93	303.664
1274.92	302.915
1275.91	302.304
1276.91	301.189
1277.9	301.357
1278.89	302.67
1279.88	304.29
1280.87	306.131
1281.87	307.415
1282.86	308.916
1283.85	310.821
1284.84	311.87
1285.83	312.372
1286.82	312.779
1287.81	312.862
1288.8	312.581
1289.79	311.378
1290.78	309.634
1291.76	307.276
1292.75	304.298
1293.74	301.814
1294.73	299.24
1295.72	296.855
1296.7	294.757
1297.69	293.726
1298.68	292.719
1299.66	291.654
1300.65	291.379
1301.64	291.207
1302.62	291.556
1303.61	292.012
1304.59	290.591
1305.58	289.367
1306.56	288.315
1307.55	287.358
1308.53	286.457
1309.51	285.784
1310.5	284.952
1311.48	284.15
1312.46	282.704
1313.45	281.92
1314.43	281.035
1315.41	281.057
1316.39	281.328
1317.38	282.073
1318.36	283.629
1319.34	285.968
1320.32	287.992
1321.3	291.364
1322.28	295.258
1323.26	299.979
1324.24	304.661
1325.22	309.114
1326.2	312.742
1327.18	317.939
1328.16	316.511
1329.13	313.803
1330.11	309.615
1331.09	304.816
1332.07	299.412
1333.04	286.613
1334.02	289.091
1335	284.27
1335.97	279.986
1336.95	276.312
1337.93	273.736
1338.9	271.771
1339.88	271.854
1340.85	272.104
1341.83	272.557
1342.8	272.466
1343.78	272.362
1344.75	272.111
1345.72	270.178
1346.7	267.793
1347.67	265.261
1348.65	263.101
1349.62	261.25
1350.59	259.326
1351.56	257.916
1352.53	256.712
1353.51	255.754
1354.48	254.979
1355.45	254.608
1356.42	255.449
1357.39	256.949
1358.36	257.718
1359.33	257.727
1360.3	258.097
1361.27	256.804
1362.24	255.111
1363.21	253.128
1364.18	250.79
1365.14	248.327
1366.11	245.799
1367.08	243.338
1368.05	241.296
1369.02	239.749
1369.98	238.935
1370.95	238.88
1371.92	239.854
1372.88	241.92
1373.85	245.122
1374.81	248.306
1375.78	251.129
1376.74	252.798
1377.71	252.353
1378.68	252.295
1379.64	252.225
1380.6	251.776
1381.57	251.717
1382.53	251.671
1383.49	251.704
1384.46	251.227
1385.42	250.491
1386.38	250.13
1387.34	249.7
1388.31	249.188
1389.27	248.242
1390.23	246.662
1391.19	245.434
1392.15	244.762
1393.11	244.093
1394.07	244.382
1395.03	244.355
1395.99	243.603
1396.95	242.837
1397.91	241.984
1398.87	240.822
1399.83	239.623
1400.79	238.368
1401.75	237.258
1402.7	236.365
1403.66	236.526
1404.62	235.553
1405.58	234.305
1406.53	233.152
1407.49	231.434
1408.45	229.894
1409.4	228.952
1410.36	227.864
1411.31	227.511
1412.27	227.714
1413.23	227.405
1414.18	226.864
1415.13	226.41
1416.09	225.802
1417.04	224.242
1418	222.901
1418.95	221.669
1419.9	220.594
1420.86	219.779
1421.81	219.233
1422.76	219.296
1423.71	219.765
1424.67	220.796
1425.62	221.894
1426.57	223.249
1427.52	224.746
1428.47	226.051
1429.42	227.404
1430.37	229.147
1431.32	230.875
1432.27	232.236
1433.22	233.271
1434.17	234.325
1435.12	234.905
1436.07	234.885
1437.02	234.785
1437.96	234.585
1438.91	234.285
1439.86	234.179
1440.81	233.952
1441.75	233.451
1442.7	232.796
1443.65	231.93
1444.59	230.932
1445.54	229.823
1446.49	228.653
1447.43	227.462
1448.38	226.187
1449.32	224.875
1450.27	223.548
1451.21	222.236
1452.15	221.193
1453.1	220.316
1454.04	219.512
1454.98	218.982
1455.93	218.694
1456.87	217.919
1457.81	216.596
1458.76	215.799
1459.7	215.333
1460.64	214.845
1461.58	214.433
1462.52	214.219
1463.46	213.867
1464.4	213.79
1465.34	213.919
1466.28	214.465
1467.22	214.014
1468.16	213.04
1469.1	212.236
1470.04	211.347
1470.98	210.208
1471.92	208.966
1472.86	208.111
1473.8	207.035
1474.73	205.982
1475.67	205.134
1476.61	204.524
1477.55	204.125
1478.48	204.426
1479.42	205.058
1480.36	205.101
1481.29	205.506
1482.23	205.956
1483.16	206.632
1484.1	207.375
1485.03	208.134
1485.97	208.799
1486.9	209.286
1487.84	208.757
1488.77	207.931
1489.7	207.058
1490.64	205.884
1491.57	205.066
1492.5	204.37
1493.44	203.945
1494.37	203.002
1495.3	201.337
1496.23	199.97
1497.16	198.817
1498.09	198.35
1499.02	199.027
1499.96	198.602
1500.89	198.485
1501.82	198.608
1502.75	199.157
1503.68	199.78
1504.61	200.307
1505.53	199.778
1506.46	199.384
1507.39	199.183
1508.32	199.292
1509.25	200.182
1510.18	202.498
1511.1	205.279
1512.03	208.506
1512.96	212.179
1513.88	216.185
1514.81	220.356
1515.74	224.447
1516.66	228.669
1517.59	232.838
1518.51	236.996
1519.44	240.974
1520.36	244.692
1521.29	248.257
1522.21	251.497
1523.14	254.303
1524.06	256.593
1524.98	258.497
1525.91	259.545
1526.83	259.864
1527.75	259.603
1528.68	258.698
1529.6	257.142
1530.52	255.097
1531.44	252.616
1532.36	249.774
1533.29	246.622
1534.21	242.85
1535.13	238.845
1536.05	234.661
1536.97	230.492
1537.89	226.53
1538.81	222.722
1539.73	219.156
1540.65	215.991
1541.56	213.105
1542.48	210.694
1543.4	208.7
1544.32	207.054
1545.24	205.983
1546.16	205.379
1547.07	205.275
1547.99	205.671
1548.91	206.603
1549.82	208.126
1550.74	209.665
1551.66	210.528
1552.57	210.717
1553.49	210.302
1554.4	209.37
1555.32	208.191
1556.23	206.801
1557.15	204.918
1558.06	202.439
1558.97	199.925
1559.89	197.141
1560.8	194.639
1561.71	192.478
1562.63	190.584
1563.54	188.856
1564.45	187.075
1565.36	185.007
1566.28	183.664
1567.19	182.623
1568.1	182.347
1569.01	183.592
1569.92	183.234
1570.83	183.582
1571.74	183.636
1572.65	183.542
1573.56	183.146
1574.47	182.649
1575.38	182.374
1576.29	182.493
1577.2	182.826
1578.11	183.064
1579.01	183.128
1579.92	183.22
1580.83	183.616
1581.74	184.147
1582.64	185.451
1583.55	186.843
1584.46	188.606
1585.36	190.506
1586.27	191.847
1587.18	192.221
1588.08	192.497
1588.99	192.617
1589.89	192.735
1590.8	192.929
1591.7	193.382
1592.61	193.709
1593.51	194.165
1594.41	194.523
1595.32	194.842
1596.22	195.286
1597.12	195.497
1598.03	195.509
1598.93	195.855
1599.83	196.277
1600.73	196.294
1601.64	197.153
1602.54	198.192
1603.44	199.303
1604.34	200.682
1605.24	201.926
1606.14	202.896
1607.04	203.411
1607.94	203.888
1608.84	204.071
1609.74	203.955
1610.64	204.004
1611.54	203.93
1612.44	203.282
1613.33	202.233
1614.23	200.975
1615.13	199.9
1616.03	198.782
1616.92	197.592
1617.82	196.505
1618.72	195.448
1619.61	194.593
1620.51	194.166
1621.41	194.508
1622.3	195.154
1623.2	195.94
1624.09	196.673
1624.99	197.291
1625.88	197.872
1626.78	198.223
1627.67	198.453
1628.57	198.616
1629.46	198.601
1630.35	198.439
1631.25	198.166
1632.14	197.745
1632.85	197.128
1633.78	195.882
1634.71	194.02
1635.64	191.896
1636.57	190.026
1637.5	188.586
1638.42	187.307
1639.35	186.6
1640.28	186.224
1641.21	186.124
1642.13	186.292
1643.06	186.714
1643.99	187.345
1644.91	187.805
1645.84	188.826
1646.77	189.853
1647.69	190.77
1648.62	191.18
1649.54	191.391
1650.47	191.348
1651.39	191.166
1652.32	190.831
1653.24	190.394
1654.17	189.921
1655.09	189.529
1656.01	189.169
1656.94	189.384
1657.86	190.185
1658.78	189.805
1659.71	189.161
1660.63	188.428
1661.55	187.698
1662.47	187.006
1663.4	186.433
1664.32	185.886
1665.24	185.377
1666.16	184.923
1667.08	184.56
1668	184.22
1668.92	184.037
1669.84	183.9
1670.76	183.834
1671.68	183.935
1672.6	183.864
1673.52	184.221
1674.44	184.56
1675.36	184.92
1676.28	185.251
1677.2	185.507
1678.12	185.697
1679.03	185.541
1679.95	185.235
1680.87	184.858
1681.79	184.18
1682.7	183.224
1683.62	182.215
1684.54	181.047
1685.45	179.738
1686.37	178.228
1687.29	176.668
1688.2	175.123
1689.12	173.593
1690.03	173.104
1690.95	172.7
1691.86	172.589
1692.78	172.386
1693.69	172.029
1694.61	171.768
1695.52	171.535
1696.43	171.603
1697.35	171.445
1698.26	171.274
1699.17	171.2
1700.09	171.371
1701	171.618
1701.91	171.658
1702.82	170.982
1703.74	170.188
1704.65	169.323
1705.56	168.262
1706.47	167.271
1707.38	166.369
1708.29	165.55
1709.2	164.868
1710.11	164.297
1711.02	163.94
1711.93	163.883
1712.84	164.011
1713.75	164.178
1714.66	164.327
1715.57	164.294
1716.48	163.818
1717.39	163.954
1718.3	164.951
1719.21	165.808
1720.11	166.414
1721.02	166.811
1721.93	167.082
1722.84	167.137
1723.74	167.053
1724.65	166.726
1725.56	166.197
1726.46	165.479
1727.37	164.635
1728.28	163.777
1729.18	162.186
1730.09	160.579
1730.99	158.977
1731.9	157.407
1732.8	155.927
1733.71	154.945
1734.61	153.932
1735.52	153.068
1736.42	152.402
1737.32	151.848
1738.23	151.477
1739.13	151.296
1740.03	151.288
1740.94	151.541
1741.84	151.926
1742.74	152.545
1743.64	153.214
1744.54	153.925
1745.45	154.648
1746.35	155.38
1747.25	155.893
1748.15	156.325
1749.05	156.573
1749.95	156.637
1750.85	156.561
1751.75	156.274
1752.65	156.031
1753.55	155.343
1754.45	154.573
1755.35	153.754
1756.25	153.001
1757.15	152.263
1758.05	151.573
1758.94	151.681
1759.84	151.563
1760.74	151.512
1761.64	151.658
1762.53	151.9
1763.43	152.169
1764.33	152.318
1765.23	151.543
1766.12	150.826
1767.02	150.09
1767.91	149.786
1768.81	149.67
1769.71	149.676
1770.6	149.859
1771.5	150.516
1772.39	151.208
1773.29	151.865
1774.18	152.297
1775.07	152.44
1775.97	152.332
1776.86	152.062
1777.76	151.502
1778.65	150.782
1779.54	149.704
1780.44	148.532
1781.33	147.394
1782.22	146.38
1783.11	145.919
1784.01	145.524
1784.9	145.493
1785.79	145.828
1786.68	146.529
1787.57	146.469
1788.46	146.087
1789.35	145.589
1790.24	145.105
1791.13	144.527
1792.02	143.851
1792.91	143.155
1793.8	142.335
1794.69	141.475
1795.58	140.486
1796.47	139.339
1797.36	138.07
1798.25	136.46
1799.14	134.561
