Acq. time (s)=	15
Accumulations=	2
Range (cm-¹)=	600...1800
Windows=	2
Autofocus=	Off
AutoExposure=	Off
Spike filter=	Multiple accum.
Delay time (s)=	1
Binning=	1
Readout mode=	Signal
DeNoise=	Standard
ICS correction=	Off
Dark correction=	Off
Inst. Process=	Off
Instrument=	XploRA
Detector=	Syncerity
Objective=	x20LWD
Grating=	1200 gr/mm
Filter=	25%
Laser (nm)=	785 
Slit (µm)=	100 
Hole (µm)=	300 
Laser pol=	None
Raman pol=	None
Output=	Camera
StageXY=	Marzhauser
StageZ=	
X (µm)=	6404.5
Y (µm)=	-5177.4
Project=	
Sample=	
Site=	
Title=	CLsoP1 f5
Remark=	
Date=	06.04.2022 11:38
Acquired=	06.04.2022 11:38:15
600.731	400.182
601.9	404.901
603.069	408.632
604.238	410.755
605.406	412.466
606.575	414.035
607.743	415.898
608.91	416.92
610.078	417.791
611.245	418.492
612.411	419.237
613.579	420.034
614.745	421.544
615.91	423.247
617.076	424.921
618.241	426.578
619.407	428.354
620.571	429.982
621.735	431.413
622.9	432.653
624.063	433.791
625.227	434.744
626.39	435.456
627.553	435.872
628.716	435.533
629.879	434.808
631.041	434.04
632.203	433.336
633.364	433.506
634.526	434.034
635.686	434.59
636.847	435.207
638.007	435.864
639.167	436.452
640.327	436.803
641.486	437.01
642.645	437.115
643.805	437.088
644.963	437.165
646.122	436.581
647.28	435.936
648.438	435.299
649.594	434.727
650.752	434.278
651.909	433.924
653.065	434.628
654.221	435.239
655.377	436.176
656.533	437.32
657.688	438.706
658.843	440.698
659.998	442.756
661.153	444.791
662.307	445.891
663.461	446.886
664.615	447.395
665.768	447.623
666.921	447.268
668.074	446.229
669.226	444.002
670.379	443.301
671.53	443.247
672.682	443.433
673.833	443.575
674.984	443.813
676.135	444.128
677.285	444.055
678.436	443.852
679.586	442.927
680.735	441.541
681.884	440.589
683.033	439.849
684.182	439.38
685.33	438.938
686.478	438.489
687.626	438.049
688.774	437.265
689.921	436.65
691.068	436.207
692.214	436.049
693.361	436.821
694.507	437.977
695.652	439.547
696.798	441.358
697.943	444.132
699.088	446.139
700.233	446.678
701.377	446.769
702.521	446.455
703.665	445.715
704.808	444.827
705.951	443.441
707.094	441.693
708.236	439.634
709.379	437.206
710.522	434.647
711.663	431.474
712.804	428.3
713.946	425.367
715.086	423.19
716.227	421.604
717.367	420.301
718.507	419.439
719.647	418.939
720.786	418.649
721.925	419.075
723.064	419.791
724.202	420.765
725.341	421.922
726.479	423.048
727.616	423.644
728.753	423.943
729.89	423.809
731.027	422.383
732.163	422.717
733.3	423.458
734.436	424.361
735.572	425.402
736.707	426.886
737.842	428.583
738.977	430.339
740.111	432.078
741.246	433.635
742.379	434.712
743.513	435.839
744.646	436.203
745.779	435.862
746.911	434.472
748.044	432.094
749.176	429.515
750.308	427.163
751.44	425.612
752.571	424.005
753.702	422.354
754.833	420.463
755.963	418.029
757.093	414.927
758.223	411.684
759.353	408.92
760.481	407.15
761.61	405.593
762.74	403.654
763.867	401.69
764.996	400.205
766.124	398.908
767.251	401.677
768.378	400.123
769.505	398.383
770.631	396.397
771.758	394.208
772.884	391.75
774.01	389.249
775.136	385.852
776.261	383.298
777.386	381.808
778.51	380.828
779.634	380.77
780.758	380.88
781.882	380.977
783.006	381.065
784.129	381.153
785.252	380.943
786.375	380.787
787.497	380.561
788.619	380.334
789.741	379.899
790.862	379.169
791.983	378.696
793.104	378.147
794.225	377.555
795.345	376.82
796.465	375.878
797.585	374.729
798.704	373.553
799.823	372.247
800.943	370.493
802.061	368.559
803.179	366.505
804.297	364.526
805.415	362.895
806.532	361.712
807.649	360.694
808.766	359.894
809.883	359.294
810.999	358.836
812.115	357.988
813.231	357.773
814.346	357.721
815.461	358.119
816.577	357.114
817.691	355.782
818.805	354.481
819.919	353.337
821.033	352.658
822.146	352.13
823.259	351.845
824.372	351.749
825.485	352.191
826.597	352.654
827.709	352.993
828.82	352.317
829.932	351.597
831.043	350.844
832.154	350.117
833.265	349.434
834.375	349.362
835.484	349.544
836.594	349.621
837.704	349.506
838.813	349.21
839.922	348.973
841.03	348.743
842.138	348.811
843.246	349.576
844.354	350.234
845.461	350.91
846.568	351.391
847.675	351.633
848.782	351.262
849.888	350.852
850.994	350.095
852.1	349.182
853.205	348.035
854.31	346.715
855.415	345.173
856.52	343.517
857.624	341.756
858.727	339.563
859.831	337.357
860.935	335.008
862.038	333.149
863.141	331.558
864.243	330.606
865.345	329.541
866.448	328.626
867.549	327.769
868.651	327.086
869.751	326.371
870.852	325.823
871.953	325.268
873.053	324.749
874.153	324.435
875.253	324.223
876.352	324.123
877.451	324.353
878.55	324.743
879.648	324.812
880.747	324.099
881.845	323.094
882.943	322.307
884.039	321.728
885.137	321.022
886.233	320.37
887.33	319.526
888.426	318.458
889.522	316.976
890.618	315.465
891.713	313.862
892.808	312.767
893.903	312.241
894.998	311.932
896.092	311.74
897.186	311.712
898.28	311.757
899.374	311.928
900.467	311.963
901.559	312.127
902.652	312.417
903.744	312.732
904.836	313.484
905.927	314.511
907.019	316.148
908.111	317.583
909.201	318.646
910.291	319.911
911.382	321.468
912.472	322.84
913.562	323.844
914.651	324.212
915.741	324.053
916.829	323.342
917.918	322.349
919.006	320.87
920.094	319.127
921.181	316.908
922.269	312.991
923.356	309.124
924.443	305.949
925.53	303.537
926.616	301.887
927.702	300.799
928.788	300.141
929.873	299.787
930.958	299.219
932.044	298.608
933.128	297.561
934.212	296.067
935.296	294.058
936.38	289.391
937.463	288.308
938.547	287.441
939.63	286.852
940.712	286.535
941.795	286.379
942.876	286.457
943.958	286.481
945.039	287.168
946.121	287.767
947.202	288.266
948.282	288.363
949.363	287.888
950.443	287.334
951.522	286.639
952.602	285.691
953.681	284.502
954.76	283.052
955.839	281.265
956.917	279.457
957.995	277.755
959.073	276.492
960.151	275.912
961.228	275.877
962.305	276.183
963.381	276.641
964.458	277.115
965.534	277.307
966.61	277.431
967.685	277.519
968.76	277.434
969.836	277.388
970.91	277.721
971.984	277.917
973.059	277.982
974.133	277.607
975.206	276.914
976.279	275.672
977.352	274.252
978.425	272.686
979.497	271.169
980.57	269.914
981.642	268.6
982.714	266.822
983.785	268.658
984.856	270.906
985.927	273.812
986.997	277.609
988.067	283.264
989.137	287.348
990.206	288.492
991.276	288.83
992.345	289.144
993.413	289.155
994.482	288.518
995.55	287.639
996.619	286.614
997.686	285.404
998.754	284.263
999.821	283.169
1000.89	282.187
1001.95	281.068
1003.02	279.916
1004.09	278.524
1005.15	277.034
1006.22	274.864
1007.28	271.923
1008.35	269.066
1009.41	266.496
1010.48	264.254
1011.54	262.307
1012.6	260.607
1013.67	259.246
1014.73	258.23
1015.79	257.503
1016.86	257.009
1017.92	256.648
1018.98	256.527
1020.04	256.524
1021.1	256.864
1022.16	257.209
1023.23	257.484
1024.29	256.566
1025.35	255.556
1026.41	254.28
1027.47	252.781
1028.53	251.075
1029.58	249.355
1030.64	247.585
1031.7	245.857
1032.76	244.153
1033.82	242.464
1034.88	241.131
1035.93	240.224
1036.99	239.965
1038.05	240.574
1039.11	241.739
1040.16	243.177
1041.22	244.8
1042.27	246.007
1043.33	246.902
1044.38	247.167
1045.44	246.757
1046.49	245.62
1047.55	245.039
1048.6	244.088
1049.66	242.659
1050.71	240.967
1051.76	239.375
1052.82	237.687
1053.87	236.279
1054.92	235.114
1055.97	234.252
1057.03	234.049
1058.08	234.506
1059.13	235.223
1060.18	236.155
1061.23	237.455
1062.28	238.603
1063.33	239.658
1064.38	240.437
1065.43	240.801
1066.48	240.998
1067.53	240.609
1068.58	240.098
1069.63	239.482
1070.68	238.756
1071.72	238.07
1072.77	237.264
1073.82	236.611
1074.87	236.221
1075.91	235.814
1076.96	235.371
1078.01	234.892
1079.05	234.415
1080.1	233.473
1081.14	232.751
1082.19	231.992
1083.23	231.058
1084.28	229.711
1085.32	228.262
1086.37	227.059
1087.41	226.06
1088.46	225.304
1089.5	224.713
1090.54	224.329
1091.58	224.006
1092.63	223.664
1093.67	223.413
1094.71	223.479
1095.75	223.817
1096.79	224.975
1097.83	226.163
1098.88	225.96
1099.92	225.292
1100.96	223.67
1102	222.042
1103.04	220.98
1104.08	219.921
1105.11	218.868
1106.15	218.065
1107.19	217.762
1108.23	218.581
1109.27	220.102
1110.31	220.026
1111.34	220.051
1112.38	219.78
1113.42	219.362
1114.45	218.751
1115.49	218.013
1116.53	217.136
1117.56	216.313
1118.6	214.829
1119.63	213.363
1120.67	212.012
1121.7	210.848
1122.74	210.36
1123.77	210.114
1124.81	210.067
1125.84	210.245
1126.87	210.623
1127.91	211.247
1128.94	212.051
1129.97	212.972
1131	213.905
1132.04	214.936
1133.07	215.917
1134.1	217.21
1135.13	218.695
1136.16	219.966
1137.19	221.086
1138.22	222.006
1139.25	222.773
1140.28	223.176
1141.31	223.565
1142.34	223.904
1143.37	224.025
1144.4	224.004
1145.42	223.909
1146.45	223.725
1147.48	223.572
1148.51	223.691
1149.53	225.43
1150.56	227.595
1151.59	228.188
1152.62	233.57
1153.64	240.108
1154.67	248.02
1155.69	252.976
1156.72	248.267
1157.74	246.913
1158.77	244.769
1159.79	241.542
1160.82	237.53
1161.84	232.797
1162.86	227.931
1163.89	223.193
1164.91	218.821
1165.93	214.924
1166.96	211.213
1167.98	208.179
1169	205.899
1170.02	204.733
1171.04	204.054
1172.06	203.839
1173.09	204.356
1174.11	205.51
1175.13	207.122
1176.15	208.957
1177.17	211.439
1178.18	213.811
1179.2	215.932
1180.22	217.319
1181.24	218.17
1182.26	218.678
1183.28	218.74
1184.3	218.496
1185.31	218.368
1186.33	218.47
1187.35	216.343
1188.37	214.009
1189.38	211.697
1190.4	209.578
1191.41	207.606
1192.43	205.739
1193.44	204.056
1194.46	202.478
1195.48	201.013
1196.49	199.722
1197.5	198.53
1198.52	197.483
1199.53	196.57
1200.54	196
1201.56	195.571
1202.57	195.298
1203.58	195.176
1204.6	195.157
1205.61	195.304
1206.62	195.473
1207.63	195.742
1208.64	195.989
1209.65	196.331
1210.66	195.842
1211.67	195.555
1212.68	195.631
1213.69	195.969
1214.7	196.877
1215.71	197.42
1216.72	198.077
1217.73	198.772
1218.74	200.087
1219.75	201.421
1220.76	202.496
1221.76	202.677
1222.77	202.044
1223.78	201.164
1224.79	200.033
1225.79	198.705
1226.8	197.361
1227.8	195.914
1228.81	194.347
1229.82	192.846
1230.82	191.104
1231.83	189.317
1232.83	187.372
1233.84	185.315
1234.84	183.356
1235.84	182.177
1236.85	181.806
1237.85	181.104
1238.85	180.359
1239.86	179.658
1240.86	178.886
1241.86	178.084
1242.86	177.266
1243.86	176.474
1244.87	175.648
1245.87	174.838
1246.87	174.031
1247.87	173.331
1248.87	172.612
1249.87	171.781
1250.87	170.983
1251.87	170.346
1252.87	169.956
1253.87	170.144
1254.86	171.156
1255.86	172.12
1256.86	173.08
1257.86	173.874
1258.86	174.527
1259.85	174.589
1260.85	174.29
1261.85	173.696
1262.84	172.912
1263.84	171.917
1264.84	170.943
1265.83	169.754
1266.83	168.422
1267.82	166.962
1268.82	165.248
1269.81	163.405
1270.81	162.75
1271.8	162.652
1272.8	163.526
1273.79	164.651
1274.78	165.788
1275.77	166.88
1276.77	168.123
1277.76	169.211
1278.75	170.042
1279.74	170.653
1280.74	170.528
1281.73	170.038
1282.72	169.311
1283.71	168.455
1284.7	169.486
1285.69	170.774
1286.68	172.382
1287.67	173.527
1288.66	171.08
1289.65	170.706
1290.64	170.23
1291.63	169.433
1292.61	168.585
1293.6	167.556
1294.59	166.484
1295.58	165.325
1296.56	164.053
1297.55	162.824
1298.54	161.569
1299.52	160.357
1300.51	159.24
1301.5	158.346
1302.48	157.737
1303.47	157.681
1304.45	157.762
1305.44	157.933
1306.42	158.35
1307.41	159.347
1308.39	160.937
1309.37	161.468
1310.36	161.302
1311.34	159.706
1312.32	157.925
1313.31	156.211
1314.29	155.998
1315.27	151.719
1316.25	155.956
1317.23	157.357
1318.22	154.591
1319.2	156.505
1320.18	158.903
1321.16	161.704
1322.14	164.518
1323.12	167.228
1324.1	169.808
1325.08	171.97
1326.06	173.428
1327.04	176.217
1328.01	177.022
1328.99	176.62
1329.97	175.091
1330.95	172.771
1331.93	169.957
1332.9	167.033
1333.88	164.277
1334.86	161.665
1335.83	159.354
1336.81	157.395
1337.79	155.799
1338.76	154.496
1339.74	153.652
1340.71	153.035
1341.69	153.106
1342.66	153.265
1343.64	153.492
1344.61	153.74
1345.58	153.699
1346.56	153.657
1347.53	153.512
1348.5	153.353
1349.48	153.158
1350.45	152.916
1351.42	152.594
1352.39	152.23
1353.36	151.763
1354.34	151.214
1355.31	150.569
1356.28	149.831
1357.25	149.129
1358.22	148.273
1359.19	147.369
1360.16	146.465
1361.13	145.594
1362.1	144.725
1363.07	143.984
1364.03	143.708
1365	143.599
1365.97	143.693
1366.94	143.888
1367.91	144.135
1368.87	144.357
1369.84	144.266
1370.81	143.569
1371.77	143.04
1372.74	142.464
1373.71	141.943
1374.67	141.837
1375.64	141.723
1376.6	141.609
1377.57	141.131
1378.53	140.424
1379.5	139.437
1380.46	138.439
1381.42	137.443
1382.39	136.62
1383.35	135.684
1384.31	134.497
1385.28	133.238
1386.24	132.132
1387.2	131.742
1388.16	131.786
1389.13	132.25
1390.09	133.83
1391.05	134.248
1392.01	134.42
1392.97	134.524
1393.93	134.705
1394.89	134.962
1395.85	135.081
1396.81	135.158
1397.77	135.126
1398.73	134.882
1399.69	134.534
1400.64	133.901
1401.6	133.134
1402.56	131.778
1403.52	130.388
1404.48	129.017
1405.43	127.812
1406.39	127.194
1407.35	126.741
1408.3	126.604
1409.26	126.617
1410.22	126.996
1411.17	127.52
1412.13	128.238
1413.08	129.207
1414.04	130.306
1414.99	131.524
1415.94	132.76
1416.9	133.817
1417.85	134.774
1418.81	135.364
1419.76	135.25
1420.71	134.764
1421.66	134.094
1422.62	133.114
1423.57	131.902
1424.52	130.696
1425.47	129.116
1426.42	127.646
1427.37	126.494
1428.33	126.082
1429.28	125.961
1430.23	126.204
1431.18	126.733
1432.13	127.615
1433.07	128.8
1434.02	130.274
1434.97	131.839
1435.92	133.598
1436.87	135.224
1437.82	136.264
1438.77	136.989
1439.71	137.128
1440.66	136.761
1441.61	136.132
1442.55	135.171
1443.5	134.027
1444.45	132.868
1445.39	131.827
1446.34	130.672
1447.28	129.72
1448.23	128.706
1449.18	127.359
1450.12	126.099
1451.06	125.368
1452.01	125.212
1452.95	125.428
1453.9	125.849
1454.84	125.793
1455.78	125.454
1456.72	125.1
1457.67	124.686
1458.61	124.205
1459.55	123.772
1460.49	123.461
1461.43	123.066
1462.38	122.66
1463.32	122.201
1464.26	121.73
1465.2	121.125
1466.14	120.532
1467.08	119.535
1468.02	118.438
1468.96	117.337
1469.9	116.39
1470.83	116.186
1471.77	115.997
1472.71	115.978
1473.65	116.069
1474.59	116.31
1475.53	116.608
1476.46	116.883
1477.4	117.602
1478.34	118.946
1479.27	118.959
1480.21	118.718
1481.14	118.37
1482.08	118.27
1483.02	118.179
1483.95	118.053
1484.89	117.216
1485.82	116.292
1486.75	115.463
1487.69	115.268
1488.62	115.662
1489.56	116.27
1490.49	116.43
1491.42	116.113
1492.35	114.596
1493.29	114.258
1494.22	113.936
1495.15	113.589
1496.08	113.278
1497.01	112.995
1497.95	112.856
1498.88	112.833
1499.81	112.894
1500.74	113.146
1501.67	113.423
1502.6	113.798
1503.53	114.157
1504.46	114.602
1505.39	115.156
1506.31	115.475
1507.24	115.939
1508.17	116.347
1509.1	117.076
1510.03	117.927
1510.95	119.006
1511.88	120.383
1512.81	122.508
1513.74	124.431
1514.66	126.569
1515.59	128.767
1516.51	131.338
1517.44	134.244
1518.37	137.825
1519.29	141.501
1520.22	145.528
1521.14	149.816
1522.06	153.642
1522.99	156.839
1523.91	159.246
1524.84	160.98
1525.76	161.998
1526.68	162.209
1527.61	161.766
1528.53	160.508
1529.45	158.596
1530.37	156.07
1531.29	152.902
1532.21	149.046
1533.14	144.806
1534.06	141.003
1534.98	137.566
1535.9	134.554
1536.82	131.741
1537.74	129.097
1538.66	128.582
1539.58	126.625
1540.5	124.558
1541.42	122.648
1542.33	120.676
1543.25	118.675
1544.17	116.77
1545.09	115.043
1546.01	113.674
1546.92	112.807
1547.84	112.146
1548.76	111.65
1549.67	111.289
1550.59	111.019
1551.51	111.41
1552.42	111.816
1553.34	112.199
1554.25	112.222
1555.17	111.776
1556.08	110.933
1557	109.67
1557.91	107.711
1558.82	105.301
1559.74	103.219
1560.65	101.244
1561.56	99.5006
1562.48	97.8737
1563.39	96.4676
1564.3	95.0657
1565.21	94.4491
1566.13	93.972
1567.04	93.5344
1567.95	93.1296
1568.86	92.7797
1569.77	92.4292
1570.68	92.1761
1571.59	91.8946
1572.5	91.617
1573.41	91.3482
1574.32	91.0367
1575.23	90.7526
1576.14	90.4554
1577.05	90.1829
1577.95	89.9178
1578.86	89.6052
1579.77	89.303
1580.68	89.0187
1581.59	88.7415
1582.49	88.5039
1583.4	88.2962
1584.31	88.1345
1585.21	88.1221
1586.12	88.0687
1587.02	88.1213
1587.93	88.2047
1588.84	88.3461
1589.74	88.5273
1590.65	88.7353
1591.55	89.1148
1592.45	89.4967
1593.36	89.8241
1594.26	89.9224
1595.17	89.9553
1596.07	89.6258
1596.97	88.8852
1597.87	88.293
1598.78	87.7772
1599.68	87.5695
1600.58	87.6214
1601.48	87.7168
1602.38	87.9086
1603.29	88.1723
1604.19	88.4634
1605.09	88.7365
1605.99	89.0926
1606.89	89.4017
1607.79	89.6441
1608.69	89.7658
1609.59	89.6665
1610.49	89.4759
1611.38	89.0497
1612.28	88.461
1613.18	87.6568
1614.08	86.6103
1614.98	85.5415
1615.87	84.4761
1616.77	83.5172
1617.67	82.6469
1618.57	81.8626
1619.46	81.2496
1620.36	80.7938
1621.25	80.4406
1622.15	80.0426
1623.05	79.4877
1623.94	78.8981
1624.84	78.4019
1625.73	77.9869
1626.62	77.617
1627.52	77.3103
1628.41	77.058
1629.31	76.9094
1630.2	76.7488
1631.09	76.6656
1631.99	76.5735
1632.87	76.6383
1633.8	76.8261
1634.73	77.0822
1635.65	77.4465
1636.58	77.83
1637.51	78.1929
1638.44	78.4265
1639.37	78.4335
1640.29	77.4777
1641.22	76.5873
1642.15	75.6117
1643.08	74.6273
1644	73.7156
1644.93	73.0705
1645.85	72.7525
1646.78	72.6065
1647.71	72.6225
1648.63	72.8396
1649.56	73.1874
1650.48	73.4941
1651.41	73.8073
1652.33	73.3283
1653.26	72.5556
1654.18	71.4606
1655.1	70.443
1656.03	69.6341
1656.95	69.0586
1657.87	68.5234
1658.8	68.0753
1659.72	67.6312
1660.64	67.2979
1661.56	67.1625
1662.49	67.2589
1663.41	67.7149
1664.33	68.4351
1665.25	69.3342
1666.17	70.6051
1667.09	71.888
1668.02	72.9481
1668.94	73.6201
1669.86	73.9269
1670.78	73.8855
1671.7	73.4226
1672.62	72.6724
1673.53	71.3374
1674.45	70.7595
1675.37	70.042
1676.29	69.3668
1677.21	68.9062
1678.13	68.637
1679.05	68.6186
1679.96	68.859
1680.88	69.2719
1681.8	69.6614
1682.72	70.2289
1683.63	70.7408
1684.55	71.1337
1685.47	71.316
1686.38	71.2556
1687.3	70.8946
1688.21	70.3697
1689.13	69.8679
1690.05	69.637
1690.96	69.383
1691.87	68.9917
1692.79	68.5254
1693.7	68.2824
1694.62	68.2538
1695.53	68.1794
1696.45	68.127
1697.36	68.0499
1698.27	67.925
1699.19	67.6881
1700.1	67.3147
1701.01	66.8423
1701.92	66.0935
1702.84	65.2698
1703.75	64.4606
1704.66	63.9085
1705.57	63.6352
1706.48	63.4321
1707.39	63.2903
1708.3	63.133
1709.21	62.7248
1710.12	62.3261
1711.03	62.0779
1711.95	62.0796
1712.85	62.1432
1713.76	62.2567
1714.67	62.7093
1715.58	63.2353
1716.49	63.7919
1717.4	64.3672
1718.31	64.726
1719.22	65.1728
1720.12	65.624
1721.03	66.1125
1721.94	66.5394
1722.85	66.7982
1723.75	66.9289
1724.66	66.3224
1725.57	65.6559
1726.47	64.9624
1727.38	64.2765
1728.28	63.6449
1729.19	63.0568
1730.1	62.5253
1731	62.0355
1731.91	61.588
1732.81	61.2437
1733.71	60.8517
1734.62	60.6828
1735.52	60.5513
1736.43	60.4963
1737.33	60.4481
1738.23	60.7093
1739.14	61.026
1740.04	61.344
1740.94	61.6931
1741.85	62.0275
1742.75	62.3872
1743.65	62.6946
1744.55	63.0021
1745.45	63.2684
1746.35	63.1403
1747.26	62.9001
1748.16	62.7212
1749.06	62.0375
1749.96	61.3403
1750.86	60.5918
1751.76	59.8628
1752.66	59.1136
1753.56	58.4054
1754.46	57.7813
1755.36	57.063
1756.25	57.2278
1757.15	57.4137
1758.05	57.6716
1758.95	57.9688
1759.85	58.3109
1760.75	58.7388
1761.64	59.0342
1762.54	59.2879
1763.44	59.3916
1764.33	59.4913
1765.23	59.5431
1766.13	59.5412
1767.02	59.5579
1767.92	59.5238
1768.82	59.5309
1769.71	59.499
1770.61	59.3913
1771.5	59.2409
1772.4	59.0837
1773.29	58.902
1774.19	58.7109
1775.08	58.5055
1775.97	58.2933
1776.87	58.0725
1777.76	57.8562
1778.65	57.6276
1779.55	57.4054
1780.44	57.177
1781.33	56.9622
1782.23	56.7417
1783.12	56.5603
1784.01	56.4746
1784.9	56.3484
1785.79	56.1966
1786.68	56.0772
1787.58	55.9573
1788.47	55.8614
1789.36	55.785
1790.25	55.7461
1791.14	55.809
1792.03	55.858
1792.92	56.0123
1793.81	56.1238
1794.7	56.2644
1795.58	56.3749
1796.47	56.4408
1797.36	56.4503
1798.25	55.2963
1799.14	54.2259
