Acq. time (s)=	15
Accumulations=	2
Range (cm-¹)=	600...1800
Windows=	2
Autofocus=	Off
AutoExposure=	Off
Spike filter=	Multiple accum.
Delay time (s)=	1
Binning=	1
Readout mode=	Signal
DeNoise=	Standard
ICS correction=	Off
Dark correction=	Off
Inst. Process=	Off
Instrument=	XploRA
Detector=	Syncerity
Objective=	x20LWD
Grating=	1200 gr/mm
Filter=	25%
Laser (nm)=	785 
Slit (µm)=	100 
Hole (µm)=	300 
Laser pol=	None
Raman pol=	None
Output=	Camera
StageXY=	Marzhauser
StageZ=	
X (µm)=	-1482.2
Y (µm)=	13291.6
Project=	
Sample=	
Site=	
Title=	CLs P5
Remark=	
Date=	15.10.2021 18:54
Operator=	
Power=	
Acquired=	15.10.2021 18:54:15
601.097	524.872
602.266	547.839
603.435	550.784
604.603	551.362
605.771	550.992
606.939	550.693
608.106	550.361
609.273	550.591
610.44	550.807
611.606	555.102
612.772	560.086
613.938	563.214
615.104	566.587
616.268	570.172
617.433	573.511
618.598	576.501
619.763	578.659
620.926	581.881
622.091	585.153
623.254	587.553
624.417	589.485
625.58	590.761
626.742	592.326
627.906	592.337
629.068	592.24
630.229	591.767
631.391	591.151
632.551	590.798
633.712	590.178
634.873	588.279
636.033	586.378
637.193	585.173
638.352	584.336
639.512	583.614
640.671	583.41
641.83	582.046
642.988	581.982
644.147	581.633
645.305	581.16
646.462	580.472
647.62	579.587
648.777	578.454
649.934	576.952
651.09	575.1
652.247	572.724
653.402	570.295
654.558	568.212
655.713	566.458
656.868	565.351
658.023	564.812
659.177	565.259
660.331	566.734
661.485	568.994
662.639	571.47
663.792	573.463
664.945	574.158
666.098	574.144
667.25	573.204
668.402	571.589
669.554	571.053
670.705	569.068
671.857	567.585
673.007	564.753
674.158	562.363
675.309	560.48
676.459	559.126
677.609	558.243
678.758	557.113
679.907	556.224
681.056	556.077
682.205	556.389
683.353	557.321
684.501	558.645
685.649	559.347
686.796	560.778
687.943	561.44
689.09	560.689
690.236	560.25
691.383	560.146
692.529	559.073
693.675	557.406
694.82	555.024
695.965	552.326
697.11	550.197
698.254	548.38
699.398	547.287
700.542	546.465
701.686	544.794
702.829	543.446
703.973	542.708
705.116	542.865
706.258	543.048
707.4	542.855
708.542	543.532
709.684	544.468
710.825	543.857
711.966	542.748
713.107	541.717
714.247	540.339
715.387	540.036
716.527	539.038
717.667	537.598
718.806	535.713
719.945	533.757
721.084	532.229
722.223	531.61
723.361	531.553
724.498	531.028
725.636	530.58
726.773	530.336
727.91	530.521
729.047	530.746
730.183	531.86
731.32	532.281
732.455	531.668
733.591	531.446
734.726	531.687
735.861	532.358
736.996	533.648
738.13	535.399
739.264	536.164
740.398	535.894
741.532	535.857
742.665	535.812
743.797	535.655
744.93	535.529
746.063	535.183
747.195	534.115
748.326	531.986
749.458	530.805
750.589	529.518
751.72	527.525
752.851	524.829
753.981	521.02
755.111	517.961
756.241	515.246
757.371	512.664
758.499	509.99
759.628	507.326
760.757	504.401
761.885	501.369
763.014	498.178
764.141	494.536
765.268	490.646
766.395	487.289
767.523	484.275
768.649	482.013
769.775	480.555
770.901	480.078
772.027	480.281
773.153	480.01
774.277	479.75
775.403	479.488
776.527	479.654
777.651	480.003
778.776	480.644
779.899	481.79
781.023	483.393
782.146	483.851
783.269	482.784
784.39	480.437
785.513	477.535
786.635	474.889
787.757	471.998
788.878	468.632
789.999	466.277
791.12	462.54
792.24	459.161
793.36	456.506
794.48	455.103
795.6	453.253
796.72	451.163
797.839	449.665
798.957	448.461
800.076	447.229
801.194	445.793
802.313	444.431
803.43	443.052
804.547	441.45
805.664	439.933
806.781	440.021
807.898	440.127
809.014	439.676
810.13	438.601
811.245	437.555
812.361	437.015
813.476	436.76
814.591	437.18
815.705	437.399
816.819	438.562
817.933	439.301
819.047	439.934
820.16	440.487
821.273	441.097
822.386	441.664
823.498	442.23
824.611	442.748
825.723	443.179
826.835	444.215
827.946	444.495
829.057	444.145
830.167	443.383
831.278	442.707
832.388	442.394
833.498	443.037
834.608	443.278
835.717	442.08
836.826	441.371
837.935	439.21
839.043	437.131
840.152	434.622
841.26	431.857
842.367	426.16
843.474	423.432
844.582	421.774
845.688	421.022
846.794	420.928
847.901	421.363
849.006	422.386
850.112	423.805
851.217	425.537
852.322	427.96
853.428	430.514
854.532	431.458
855.636	432.132
856.74	429.221
857.843	424.137
858.947	413.634
860.05	410.002
861.153	406.873
862.255	404.115
863.358	401.583
864.459	399.214
865.561	398.421
866.662	403.267
867.763	403.327
868.864	403.361
869.964	401.535
871.065	398.517
872.165	398.076
873.264	397.956
874.363	398.003
875.463	397.807
876.561	397.189
877.66	395.74
878.758	395.105
879.856	394.417
880.954	393.763
882.051	392.98
883.148	392.209
884.244	391.347
885.341	390.135
886.437	390.2
887.533	390.708
888.629	391.158
889.724	391.567
890.819	391.976
891.914	392.364
893.009	392.766
894.102	393.317
895.197	394.086
896.29	394.104
897.384	393.315
898.477	392.453
899.569	392.041
900.662	391.568
901.754	390.799
902.846	389.89
903.938	387.927
905.029	387.598
906.12	387.132
907.211	386.799
908.301	386.522
909.391	386.259
910.481	385.914
911.571	385.515
912.66	385.056
913.749	384.543
914.838	383.956
915.927	383.26
917.015	382.506
918.103	381.611
919.191	380.654
920.279	379.572
921.365	378.433
922.452	377.171
923.539	375.845
924.625	374.349
925.711	372.791
926.796	371.074
927.882	369.317
928.967	367.419
930.052	365.356
931.136	363.335
932.221	361.386
933.305	360.825
934.389	359.852
935.472	358.516
936.555	357.046
937.638	355.473
938.721	353.99
939.802	352.733
940.885	351.912
941.966	351.733
943.048	351.849
944.129	351.805
945.209	351.536
946.29	350.913
947.371	350.262
948.451	349.738
949.531	349.379
950.61	349.124
951.689	349.161
952.768	349.314
953.847	349.489
954.925	349.586
956.003	349.364
957.081	348.986
958.158	349.22
959.236	349.302
960.312	349.697
961.389	346.136
962.465	344.678
963.542	343.482
964.617	342.657
965.693	342.123
966.768	341.701
967.843	341.526
968.918	341.648
969.991	341.949
971.066	342.469
972.139	343.116
973.213	343.344
974.286	343.532
975.359	344.48
976.432	345.859
977.504	347.66
978.576	349.284
979.648	350.694
980.72	351.762
981.791	352.397
982.862	352.995
983.933	354.508
985.004	355.172
986.074	355.075
987.143	354.373
988.213	353.133
989.282	351.417
990.351	348.61
991.42	347.678
992.489	346.614
993.557	345.524
994.624	344.356
995.692	343.21
996.76	342.142
997.827	341.226
998.893	340.32
999.96	339.838
1001.03	339.441
1002.09	338.984
1003.16	338.042
1004.22	336.85
1005.29	335.592
1006.35	334.127
1007.42	332.24
1008.48	329.776
1009.54	327.273
1010.61	324.537
1011.67	322.316
1012.74	320.19
1013.8	318.132
1014.86	316.486
1015.92	315.073
1016.99	313.859
1018.05	312.855
1019.11	311.913
1020.17	310.917
1021.23	310.198
1022.29	309.164
1023.35	307.584
1024.41	306.644
1025.47	305.628
1026.53	304.35
1027.59	302.681
1028.65	300.561
1029.71	298.252
1030.77	296.471
1031.82	295.031
1032.88	294.26
1033.94	293.908
1035	292.99
1036.05	293.079
1037.11	293.265
1038.17	293.019
1039.22	293.086
1040.28	293.595
1041.33	294.34
1042.39	295.309
1043.44	296.578
1044.5	297.824
1045.55	298.666
1046.61	299.076
1047.66	299.189
1048.71	298.864
1049.77	297.953
1050.82	296.591
1051.87	295.475
1052.93	294.251
1053.98	293.102
1055.03	293.1
1056.08	291.804
1057.13	290.413
1058.18	288.901
1059.23	287.31
1060.29	286.215
1061.34	286.441
1062.39	286.523
1063.44	287.026
1064.48	287.433
1065.53	287.593
1066.58	287.534
1067.63	287.127
1068.68	286.483
1069.73	285.577
1070.78	284.306
1071.82	281.982
1072.87	279.747
1073.92	278.247
1074.96	277.116
1076.01	275.928
1077.06	274.617
1078.1	273.509
1079.15	273.166
1080.19	273.43
1081.24	274.257
1082.28	274.872
1083.33	275.088
1084.37	275.452
1085.41	275.85
1086.46	275.414
1087.5	275.841
1088.54	275.701
1089.59	275.383
1090.63	274.708
1091.67	273.627
1092.71	272.076
1093.76	270.484
1094.8	269.757
1095.84	269.484
1096.88	269.634
1097.92	270.066
1098.96	270.982
1100	271.699
1101.04	271.887
1102.08	271.811
1103.12	271.442
1104.16	270.994
1105.19	271.938
1106.23	271.491
1107.27	270.601
1108.31	269.855
1109.35	268.844
1110.38	267.475
1111.42	265.829
1112.46	263.799
1113.49	261.398
1114.53	259.693
1115.56	258.614
1116.6	258.007
1117.64	257.59
1118.67	257.322
1119.71	256.865
1120.74	256.537
1121.77	256.121
1122.81	255.657
1123.84	255.318
1124.87	255.142
1125.91	255.423
1126.94	255.911
1127.97	257.065
1129	257.908
1130.04	258.596
1131.07	259.432
1132.1	259.18
1133.13	260.364
1134.16	261.447
1135.19	262.813
1136.22	264.331
1137.25	266.226
1138.28	268.599
1139.31	270.385
1140.34	271.701
1141.37	272.314
1142.4	273.494
1143.43	272.599
1144.45	271.984
1145.48	271.85
1146.51	271.967
1147.54	272.945
1148.56	270.644
1149.59	291.331
1150.62	291.788
1151.64	293.755
1152.67	296.379
1153.69	301.351
1154.72	299.832
1155.74	297.151
1156.77	293.323
1157.79	288.712
1158.82	283.762
1159.84	278.401
1160.86	269.929
1161.89	263.923
1162.91	258.395
1163.93	253.179
1164.96	250.709
1165.98	248.244
1167	245.757
1168.02	246.469
1169.04	246.205
1170.06	250.491
1171.09	252.249
1172.11	253.521
1173.13	254.633
1174.15	256.608
1175.17	257.835
1176.19	259.393
1177.2	260.873
1178.22	261.694
1179.24	262.415
1180.26	262.351
1181.28	261.474
1182.3	260.772
1183.31	259.879
1184.33	259.57
1185.35	265.054
1186.37	262.409
1187.38	259.736
1188.4	257.037
1189.41	254.291
1190.43	251.409
1191.45	248.687
1192.46	246.446
1193.47	245.363
1194.49	245.489
1195.5	245.291
1196.52	245.493
1197.53	244.502
1198.55	242.947
1199.56	241.596
1200.57	240.134
1201.58	238.812
1202.6	235.799
1203.61	235.347
1204.62	234.718
1205.63	234.603
1206.64	234.91
1207.65	236.039
1208.66	237.427
1209.67	238.207
1210.68	239.242
1211.69	241.484
1212.7	243.1
1213.71	244.263
1214.72	244.83
1215.73	244.595
1216.74	243.76
1217.75	242.323
1218.76	240.877
1219.76	238.803
1220.77	235.788
1221.78	233.589
1222.79	232.282
1223.79	232.118
1224.8	232.029
1225.8	231.777
1226.81	230.87
1227.82	229.648
1228.82	227.799
1229.83	226.566
1230.83	225.363
1231.83	225.044
1232.84	224.115
1233.84	223.04
1234.85	221.896
1235.85	220.617
1236.85	218.401
1237.86	215.798
1238.86	213.016
1239.86	210.371
1240.86	209.309
1241.86	208.624
1242.86	208.712
1243.87	208.795
1244.87	208.735
1245.87	209.06
1246.87	209.801
1247.87	210.633
1248.87	211.121
1249.87	211.454
1250.87	209.724
1251.87	209.533
1252.86	209.483
1253.86	209.313
1254.86	209.096
1255.86	208.534
1256.86	207.934
1257.85	207.311
1258.85	207.059
1259.85	206.924
1260.84	206.913
1261.84	206.88
1262.84	206.314
1263.83	205.55
1264.83	205.246
1265.82	204.848
1266.82	204.173
1267.81	203.008
1268.81	201.73
1269.8	200.37
1270.79	199.251
1271.79	198.075
1272.78	196.66
1273.77	195.34
1274.77	194.791
1275.76	194.565
1276.75	194.493
1277.74	194.304
1278.73	194.922
1279.73	196.397
1280.72	197.733
1281.71	198.512
1282.7	198.978
1283.69	199.07
1284.68	198.789
1285.67	198.083
1286.66	197.014
1287.65	195.614
1288.64	193.839
1289.62	191.758
1290.61	189.084
1291.6	188.08
1292.59	187.422
1293.58	186.799
1294.56	186.419
1295.55	186.222
1296.54	186.354
1297.52	187.14
1298.51	188.119
1299.5	188.745
1300.48	189.388
1301.47	189.997
1302.45	190.394
1303.44	190.264
1304.42	189.862
1305.41	189.316
1306.39	188.477
1307.37	187.691
1308.36	187.402
1309.34	187.351
1310.32	187.574
1311.31	187.814
1312.29	187.743
1313.27	187.654
1314.25	187.847
1315.23	188.497
1316.21	189.952
1317.2	191.741
1318.18	193.504
1319.16	195.52
1320.14	197.433
1321.12	199.184
1322.1	200.69
1323.08	202.177
1324.06	203.218
1325.03	203.571
1326.01	203.281
1326.99	202.567
1327.97	201.276
1328.95	199.428
1329.92	197.007
1330.9	193.896
1331.88	190.431
1332.86	187.486
1333.83	184.794
1334.81	183.16
1335.78	181.891
1336.76	180.798
1337.74	180.114
1338.71	180.005
1339.69	180.074
1340.66	179.506
1341.63	179.038
1342.61	178.704
1343.58	177.836
1344.56	177.052
1345.53	176.43
1346.5	175.869
1347.47	175.192
1348.45	174.776
1349.42	174.433
1350.39	174.124
1351.36	173.551
1352.33	173.022
1353.31	172.586
1354.28	172.49
1355.25	171.571
1356.22	170.389
1357.19	169.077
1358.16	167.743
1359.13	166.404
1360.09	165.018
1361.06	163.676
1362.03	162.194
1363	160.886
1363.97	160.058
1364.94	159.297
1365.9	158.859
1366.87	158.815
1367.84	159.776
1368.81	160.885
1369.77	161.782
1370.74	162.589
1371.7	163.403
1372.67	164.122
1373.64	164.714
1374.6	164.945
1375.57	164.645
1376.53	164.684
1377.49	164.663
1378.46	164.697
1379.42	164.415
1380.39	163.254
1381.35	162.537
1382.31	163.568
1383.28	164.176
1384.24	164.272
1385.2	164.112
1386.16	163.774
1387.12	163.409
1388.09	162.9
1389.05	162.094
1390.01	161.044
1390.97	159.713
1391.93	158.177
1392.89	156.591
1393.85	155.008
1394.81	154.348
1395.77	154.79
1396.73	155.123
1397.68	155.398
1398.64	155.622
1399.6	155.756
1400.56	155.933
1401.52	155.895
1402.47	155.836
1403.43	155.688
1404.39	155.478
1405.35	155.154
1406.3	154.872
1407.26	154.416
1408.21	153.984
1409.17	153.454
1410.12	152.89
1411.08	152.379
1412.03	151.686
1412.99	151.011
1413.94	150.34
1414.9	149.724
1415.85	149.089
1416.8	148.493
1417.76	147.904
1418.71	147.518
1419.66	147.042
1420.62	146.7
1421.57	146.367
1422.52	146.226
1423.47	146.143
1424.42	146.209
1425.37	146.298
1426.32	146.581
1427.27	146.911
1428.22	147.329
1429.17	147.796
1430.12	148.368
1431.07	149.054
1432.02	149.771
1432.97	150.55
1433.92	151.308
1434.87	151.985
1435.82	152.589
1436.76	153.22
1437.71	153.685
1438.66	154.094
1439.61	154.356
1440.55	154.505
1441.5	154.478
1442.45	154.264
1443.39	153.942
1444.34	153.496
1445.28	152.868
1446.23	152.006
1447.17	151.038
1448.12	149.738
1449.06	148.235
1450.01	146.334
1450.95	144.192
1451.89	141.981
1452.84	140.112
1453.78	139.28
1454.72	138.562
1455.67	138.073
1456.61	137.775
1457.55	137.62
1458.49	137.76
1459.43	138.077
1460.37	138.495
1461.32	139.13
1462.26	139.819
1463.2	140.553
1464.14	140.172
1465.08	140.605
1466.02	140.903
1466.96	140.445
1467.89	139.933
1468.83	139.433
1469.77	139.17
1470.71	139.188
1471.65	139.39
1472.59	139.668
1473.52	139.948
1474.46	140.082
1475.4	140.118
1476.33	139.993
1477.27	139.858
1478.21	139.616
1479.14	139.092
1480.08	138.848
1481.01	139.396
1481.95	139.76
1482.88	140.329
1483.82	141.112
1484.75	141.791
1485.69	142.288
1486.62	142.254
1487.56	141.982
1488.49	141.869
1489.42	141.853
1490.35	141.548
1491.29	141.045
1492.22	140.363
1493.15	139.479
1494.08	138.082
1495.01	136.651
1495.94	135.255
1496.88	134.117
1497.81	133.024
1498.74	132.155
1499.67	131.44
1500.6	130.917
1501.53	130.383
1502.46	130.092
1503.39	129.999
1504.31	130.141
1505.24	130.553
1506.17	131.29
1507.1	132.47
1508.03	134.056
1508.95	136.022
1509.88	138.216
1510.81	140.942
1511.74	143.879
1512.66	147.109
1513.59	150.602
1514.51	154.313
1515.44	158.282
1516.36	162.255
1517.29	166.563
1518.21	170.681
1519.14	174.772
1520.06	177.696
1520.99	180.076
1521.91	181.771
1522.84	182.804
1523.76	183.14
1524.68	182.794
1525.6	181.708
1526.53	179.773
1527.45	177.456
1528.37	175.173
1529.29	172.759
1530.21	170.319
1531.14	167.761
1532.06	165.117
1532.98	162.438
1533.9	159.776
1534.82	157.186
1535.74	154.956
1536.66	152.944
1537.58	150.515
1538.5	147.467
1539.41	144.597
1540.33	142.16
1541.25	140.149
1542.17	138.574
1543.09	137.397
1544.01	136.993
1544.92	136.657
1545.84	136.237
1546.76	135.766
1547.67	135.171
1548.59	134.622
1549.51	134.146
1550.42	133.557
1551.34	132.867
1552.25	132.041
1553.17	130.848
1554.08	129.423
1555	127.899
1555.91	125.977
1556.82	124.01
1557.74	122.032
1558.65	120.53
1559.56	119.266
1560.48	118.187
1561.39	117.282
1562.3	116.549
1563.21	115.853
1564.13	115.306
1565.04	114.692
1565.95	114.282
1566.86	113.877
1567.77	113.479
1568.68	113.09
1569.59	112.547
1570.5	111.798
1571.41	110.63
1572.32	109.615
1573.23	108.829
1574.14	108.202
1575.05	107.796
1575.96	107.588
1576.86	107.563
1577.77	107.542
1578.68	107.558
1579.59	107.541
1580.49	107.573
1581.4	107.751
1582.31	107.922
1583.21	108.25
1584.12	108.525
1585.03	108.797
1585.93	109.051
1586.84	109.176
1587.74	109.186
1588.65	109.281
1589.55	109.194
1590.46	109.061
1591.36	108.714
1592.26	108.366
1593.17	108.129
1594.07	107.957
1594.97	107.844
1595.88	107.937
1596.78	108.31
1597.68	108.765
1598.58	109.153
1599.48	109.54
1600.39	109.747
1601.29	109.737
1602.19	109.642
1603.09	109.364
1603.99	108.745
1604.89	107.722
1605.79	107.099
1606.69	106.545
1607.59	105.966
1608.49	105.351
1609.39	104.688
1610.28	104.084
1611.18	103.573
1612.08	103.216
1612.98	103.034
1613.88	102.994
1614.77	103.045
1615.67	103.356
1616.57	103.442
1617.46	103.528
1618.36	103.491
1619.26	102.906
1620.15	102.037
1621.05	101.197
1621.94	100.375
1622.84	99.5153
1623.73	98.8016
1624.63	98.1904
1625.52	97.6464
1626.41	97.1617
1627.31	96.7403
1628.2	96.3401
1629.09	95.9502
1629.99	95.5695
1630.88	95.181
1631.77	95.0643
1632.65	94.9944
1633.58	94.9447
1634.51	94.9944
1635.43	95.0425
1636.36	95.1231
1637.29	95.1906
1638.22	95.253
1639.15	95.3105
1640.07	95.3343
1641	95.3633
1641.93	95.2415
1642.85	95.1977
1643.78	95.0614
1644.7	94.9444
1645.63	94.5913
1646.55	94.1558
1647.48	93.5368
1648.41	93.1857
1649.33	92.707
1650.25	92.2047
1651.18	91.7018
1652.1	91.2085
1653.03	90.7189
1653.95	90.2787
1654.87	89.9855
1655.8	89.9705
1656.72	89.9838
1657.64	89.9087
1658.56	89.9672
1659.49	89.9129
1660.41	90.1498
1661.33	90.3798
1662.25	90.6619
1663.17	90.9462
1664.1	91.2743
1665.02	91.412
1665.94	90.7881
1666.86	90.4186
1667.78	90.1639
1668.7	89.9525
1669.62	90.3057
1670.54	90.9825
1671.46	90.9414
1672.38	90.5362
1673.29	90.0745
1674.21	89.6029
1675.13	89.0734
1676.05	88.5567
1676.97	88.0403
1677.89	87.6668
1678.8	87.5588
1679.72	87.5226
1680.64	87.4968
1681.55	87.5014
1682.47	87.5527
1683.39	87.4732
1684.3	87.232
1685.22	86.9582
1686.14	86.4486
1687.05	85.9981
1687.97	85.5542
1688.88	85.2387
1689.8	84.9416
1690.71	84.7909
1691.63	84.828
1692.54	84.9633
1693.45	85.1805
1694.37	85.5124
1695.28	85.9044
1696.19	86.4586
1697.11	85.3214
1698.02	84.1673
1698.93	83.3371
1699.84	82.5727
1700.76	81.6132
1701.67	81.2468
1702.58	81.254
1703.49	81.4593
1704.4	81.928
1705.31	80.7701
1706.22	79.5665
1707.14	78.5765
1708.05	78.1913
1708.96	77.6691
1709.87	77.3909
1710.78	77.3077
1711.68	77.3652
1712.59	77.5222
1713.5	77.7103
1714.41	77.964
1715.32	78.2685
1716.23	78.6062
1717.14	78.9585
1718.04	79.3528
1718.95	79.7135
1719.86	80.1357
1720.77	80.4636
1721.67	80.8154
1722.58	81.0382
1723.49	81.3977
1724.39	81.7129
1725.3	82.0221
1726.21	82.2868
1727.11	82.4893
1728.02	82.6362
1728.92	82.6353
1729.83	82.4868
1730.73	82.0762
1731.64	81.2508
1732.54	79.7541
1733.44	78.4914
1734.35	77.9666
1735.25	77.6741
1736.15	77.4629
1737.06	76.8397
1737.96	76.5069
1738.86	76.8008
1739.77	77.1232
1740.67	77.4071
1741.57	77.5102
1742.47	77.2766
1743.37	76.922
1744.27	76.9737
1745.18	77.0148
1746.08	76.3329
1746.98	75.5627
1747.88	75.1641
1748.78	74.9724
1749.68	74.9021
1750.58	74.9133
1751.48	75.0669
1752.38	75.2286
1753.28	75.2937
1754.17	75.2283
1755.07	74.9843
1755.97	74.5033
1756.87	74.0003
1757.77	73.2951
1758.66	72.4311
1759.56	71.6313
1760.46	71.5476
1761.36	71.8
1762.25	71.8078
1763.15	71.794
1764.05	71.6628
1764.94	71.5872
1765.84	71.5433
1766.73	71.5781
1767.63	71.6317
1768.53	71.7682
1769.42	71.9492
1770.32	72.2622
1771.21	72.5251
1772.1	73.2235
1773	73.9246
1773.89	74.6592
1774.79	75.3582
1775.68	76.0315
1776.57	76.6142
1777.47	76.9581
1778.36	76.4887
1779.25	76.3569
1780.14	76.0667
1781.04	75.4418
1781.93	74.7969
1782.82	74.5006
1783.71	74.119
1784.6	73.8478
1785.49	73.2805
1786.38	72.3839
1787.27	71.4582
1788.17	70.6114
1789.06	70.092
1789.95	69.4821
1790.84	69.0235
1791.72	68.725
1792.61	68.5481
1793.5	68.5599
1794.39	68.5372
1795.28	67.6474
1796.17	67.2992
1797.06	66.3744
1797.94	65.6806
1798.83	64.7127
1799.72	62.9999
